Time (s),Altitude (m),Velocity (m/s),Angular Velocity (rad/s),Fin Cant Angle (deg),Angular Position (deg)
0.000000000000000000e+00,1.000000000000000021e-02,0.000000000000000000e+00,0.000000000000000000e+00,0.000000000000000000e+00,0.000000000000000000e+00
2.500000000000000052e-03,9.986386637773079014e-03,-1.993609492579490397e-02,0.000000000000000000e+00,0.000000000000000000e+00,0.000000000000000000e+00
5.000000000000000104e-03,9.928091511289706753e-03,-3.078551216804375351e-02,0.000000000000000000e+00,0.000000000000000000e+00,0.000000000000000000e+00
7.499999999999999722e-03,9.847831997829114073e-03,-3.254704851623036604e-02,0.000000000000000000e+00,0.000000000000000000e+00,0.000000000000000000e+00
1.000000000000000021e-02,9.768328045893271555e-03,-2.522027013642634541e-02,0.000000000000000000e+00,0.000000000000000000e+00,0.000000000000000000e+00
1.250000000000000069e-02,9.712300688597770917e-03,-8.804743159700659239e-03,0.000000000000000000e+00,0.000000000000000000e+00,0.000000000000000000e+00
1.500000000000000118e-02,9.702472043801670804e-03,1.669996636267948031e-02,0.000000000000000000e+00,0.000000000000000000e+00,0.000000000000000000e+00
1.750000000000000167e-02,9.761565314242437452e-03,5.129429234039164370e-02,0.000000000000000000e+00,0.000000000000000000e+00,0.000000000000000000e+00
2.000000000000000042e-02,9.912304787177268067e-03,9.497866821066008880e-02,0.000000000000000000e+00,0.000000000000000000e+00,0.000000000000000000e+00
2.249999999999999917e-02,1.017741583267826530e-02,1.477535260694457508e-01,0.000000000000000000e+00,0.000000000000000000e+00,0.000000000000000000e+00
2.499999999999999792e-02,1.058034298088628838e-02,2.068415183348714104e-01,0.000000000000000000e+00,0.000000000000000000e+00,0.000000000000000000e+00
2.749999999999999667e-02,1.113119738476198509e-02,2.664546117762536248e-01,-1.892068221312800548e-16,0.000000000000000000e+00,0.000000000000000000e+00
2.999999999999999542e-02,1.183129181459806160e-02,3.264328631216457666e-01,3.985456164516149383e-17,0.000000000000000000e+00,0.000000000000000000e+00
3.249999999999999417e-02,1.268153918109707519e-02,3.867763008581833195e-01,1.125931947506068515e-17,0.000000000000000000e+00,0.000000000000000000e+00
3.499999999999999639e-02,1.368285246494978756e-02,4.474849512824198849e-01,8.886345224047915686e-17,0.000000000000000000e+00,0.000000000000000000e+00
3.749999999999999861e-02,1.483614471143777230e-02,5.085588386429775731e-01,3.729202951762442460e-16,0.000000000000000000e+00,0.000000000000000000e+00
4.000000000000000083e-02,1.614232902539446124e-02,5.699979852820901138e-01,-7.845424973570275085e-16,0.000000000000000000e+00,0.000000000000000000e+00
4.250000000000000305e-02,1.760231856655762595e-02,6.318024118083339635e-01,-2.034928861384287913e-15,0.000000000000000000e+00,0.000000000000000000e+00
4.500000000000000527e-02,1.921702654520889703e-02,6.939721371537920236e-01,-2.293550730880791039e-15,0.000000000000000000e+00,8.690728977404431376e-16
4.750000000000000749e-02,2.098736621816937181e-02,7.565071788011870080e-01,2.938527487187774478e-15,0.000000000000000000e+00,3.977404541021376349e-15
5.000000000000000971e-02,2.291425088519010583e-02,8.194075528417426035e-01,2.270778570331465599e-15,0.000000000000000000e+00,9.185044228903307310e-15
5.250000000000001193e-02,2.499859388561021661e-02,8.826732742167503476e-01,-1.764559906212631106e-14,0.000000000000000000e+00,1.690056887399476266e-14
5.500000000000001416e-02,2.724130859552719233e-02,9.463043567975953918e-01,-2.455490238951272009e-14,0.000000000000000000e+00,2.852369599624450297e-14
5.750000000000001638e-02,2.964330842519311005e-02,1.010300813511534113e+00,3.167660777778961077e-16,0.000000000000000000e+00,4.435891280773372716e-14
6.000000000000001860e-02,3.220550681672167820e-02,1.074662656461237598e+00,3.453043177783582023e-14,0.000000000000000000e+00,6.374551152723697844e-14
6.250000000000001388e-02,3.492881724209024458e-02,1.139389897042843103e+00,6.704056279173428741e-14,0.000000000000000000e+00,8.599740608213695436e-14
6.500000000000001610e-02,3.781415320143283187e-02,1.204482546036058865e+00,1.091332570647218579e-13,0.000000000000000000e+00,1.103248218256313151e-13
6.750000000000001832e-02,4.086242822155426030e-02,1.269940613717886801e+00,1.451342501106281502e-13,0.000000000000000000e+00,1.362576677419408613e-13
7.000000000000002054e-02,4.407455585470473197e-02,1.335764109932796151e+00,1.479959279477821806e-13,0.000000000000000000e+00,1.631299225425188387e-13
7.250000000000002276e-02,4.745144967760318855e-02,1.401953044222570943e+00,1.488177399688295121e-13,0.000000000000000000e+00,1.908661110571688616e-13
7.500000000000002498e-02,5.099402329066578254e-02,1.468507425856546922e+00,9.874228230939460132e-14,0.000000000000000000e+00,2.199473159775428495e-13
7.750000000000002720e-02,5.470319031738209159e-02,1.535427263915633889e+00,1.375429868975431104e-13,0.000000000000000000e+00,2.509745745897375563e-13
8.000000000000002942e-02,5.857986440387859262e-02,1.602712567354310558e+00,2.003186362920225917e-13,0.000000000000000000e+00,2.834589318066434534e-13
8.250000000000003164e-02,6.262495921863334147e-02,1.670363345055985604e+00,8.595487590480138464e-14,0.000000000000000000e+00,3.160142213837015652e-13
8.500000000000003386e-02,6.683938845232556547e-02,1.738379605882059975e+00,1.361527172707140807e-13,0.000000000000000000e+00,3.502597135745003451e-13
8.750000000000003608e-02,7.122406581780454937e-02,1.806761358715055277e+00,2.103417991951225875e-13,0.000000000000000000e+00,3.850482201663950770e-13
9.000000000000003830e-02,7.577990505016318767e-02,1.875508612496187943e+00,1.078241445860356284e-13,0.000000000000000000e+00,4.194989205264573664e-13
9.250000000000004052e-02,8.050781990690261680e-02,1.944621376257789080e+00,1.427177603642586774e-13,0.000000000000000000e+00,4.547527781360775198e-13
9.500000000000004274e-02,8.540872416817524293e-02,2.014099659150952348e+00,-4.790101314676399036e-14,0.000000000000000000e+00,4.930251953029166134e-13
9.750000000000004496e-02,9.048353163222706830e-02,2.083943464093612086e+00,-8.216261265577235564e-14,0.000000000000000000e+00,5.445445342487915573e-13
1.000000000000000472e-01,9.573315611598762209e-02,2.154152807510779866e+00,2.068427808114981178e-14,0.000000000000000000e+00,6.086862755897363324e-13
1.025000000000000494e-01,1.011585114691731790e-01,2.224727697109891267e+00,-2.036083111958126040e-13,0.000000000000000000e+00,6.873810786042931671e-13
1.050000000000000516e-01,1.067605115628626616e-01,2.295668143210783718e+00,-1.477594144835455174e-13,0.000000000000000000e+00,7.845166412263687395e-13
1.075000000000000538e-01,1.125400702937638803e-01,2.366974155576587968e+00,-2.453212882246585780e-13,0.000000000000000000e+00,9.033230548570221730e-13
1.100000000000000561e-01,1.184981015832897722e-01,2.438645744322402109e+00,-2.058031846156468907e-13,0.000000000000000000e+00,1.047028243956743685e-12
1.125000000000000583e-01,1.246355193779430520e-01,2.510682919649485978e+00,-9.805364697176486552e-14,0.000000000000000000e+00,1.217800350001591072e-12
1.150000000000000605e-01,1.309532376505758988e-01,2.583085692311299031e+00,-1.315322022939903505e-13,0.000000000000000000e+00,1.417535608197342019e-12
1.175000000000000627e-01,1.374521704006607115e-01,2.655854073084547018e+00,-3.049304905767689935e-13,0.000000000000000000e+00,1.648181863938803345e-12
1.200000000000000649e-01,1.441332316547348225e-01,2.728988072962816425e+00,-5.073468666353136363e-13,0.000000000000000000e+00,1.914473162383969166e-12
1.225000000000000672e-01,1.509973354669411350e-01,2.802487703154171506e+00,2.212663591101180714e-13,0.000000000000000000e+00,2.222851007251007226e-12
1.250000000000000555e-01,1.580453959195621816e-01,2.876352975077575369e+00,6.165209228680005474e-13,0.000000000000000000e+00,2.566489146123234505e-12
1.275000000000000577e-01,1.652783271235446771e-01,2.950583900358306533e+00,6.167957087208756329e-13,0.000000000000000000e+00,2.943208870731839818e-12
1.300000000000000600e-01,1.726970432190120808e-01,3.025180490822515722e+00,5.969094179994551628e-13,0.000000000000000000e+00,3.356976816412713616e-12
1.325000000000000622e-01,1.803024583757631971e-01,3.100142758462054893e+00,3.498191621402181753e-13,0.000000000000000000e+00,3.805803043660562045e-12
1.350000000000000644e-01,1.880954867936825703e-01,3.175470715513583286e+00,1.028748026222527007e-12,0.000000000000000000e+00,4.293658551193464179e-12
1.375000000000000666e-01,1.960770427033483865e-01,3.251164374366944720e+00,1.886055253321577503e-12,0.000000000000000000e+00,4.817205441280852365e-12
1.400000000000000688e-01,2.042480403662989552e-01,3.327223747495609008e+00,1.831548237989587523e-12,0.000000000000000000e+00,5.367368065514715956e-12
1.425000000000000711e-01,2.126093940755700018e-01,3.403648847715063930e+00,1.566837360445563368e-12,0.000000000000000000e+00,5.943706817235591743e-12
1.450000000000000733e-01,2.211620181562163889e-01,3.480439687911797364e+00,1.781797090117179340e-12,0.000000000000000000e+00,6.548903276876452319e-12
1.475000000000000755e-01,2.299068269655931973e-01,3.557596281121804704e+00,2.577113311932756862e-12,0.000000000000000000e+00,7.178814749428741818e-12
1.500000000000000777e-01,2.388447348937248749e-01,3.635118640522445155e+00,1.299309947365022233e-12,0.000000000000000000e+00,7.829441060757801338e-12
1.525000000000000799e-01,2.479766563636539856e-01,3.713006779424307346e+00,-3.883389124297121829e-13,0.000000000000000000e+00,8.504487135249686454e-12
1.550000000000000822e-01,2.573035058317696966e-01,3.791260711263124694e+00,1.372473912808293551e-12,0.000000000000000000e+00,9.211341457912286528e-12
1.575000000000000844e-01,2.668261977881161151e-01,3.869880449591789340e+00,2.368081913304784169e-12,0.000000000000000000e+00,9.938506018335893262e-12
1.600000000000000866e-01,2.765456467566806409e-01,3.948866008072473566e+00,1.550105709616856012e-12,0.000000000000000000e+00,1.067320237196185927e-11
1.625000000000000888e-01,2.864627672956628901e-01,4.028217400468917297e+00,1.845299563596452916e-12,0.000000000000000000e+00,1.142051949906367234e-11
1.650000000000000910e-01,2.965784739977242457e-01,4.107934640638887025e+00,3.826071381357559191e-12,0.000000000000000000e+00,1.217296608906266549e-11
1.675000000000000933e-01,3.068936814902187282e-01,4.188017742526849219e+00,5.367678829950144572e-12,0.000000000000000000e+00,1.291654165869891037e-11
1.700000000000000955e-01,3.174093044354058812e-01,4.268466720156874672e+00,2.508818224403296213e-12,0.000000000000000000e+00,1.363970188882041170e-11
1.725000000000000977e-01,3.281262575307766771e-01,4.349281587730517096e+00,1.236324555723719191e-12,0.000000000000000000e+00,1.435215773705125736e-11
1.750000000000000999e-01,3.390454555090983702e-01,4.430462359304108588e+00,-1.144926975311679999e-12,0.000000000000000000e+00,1.505164621038183665e-11
1.775000000000001021e-01,3.501678131384445836e-01,4.512009049099692248e+00,-8.346120913116076795e-14,0.000000000000000000e+00,1.574423979505988054e-11
1.800000000000001044e-01,3.614942452224734204e-01,4.593921671430103437e+00,-1.239469164176052592e-13,0.000000000000000000e+00,1.641740609597134142e-11
1.825000000000001066e-01,3.730256666006513400e-01,4.676200240580338452e+00,1.076084463726539561e-12,0.000000000000000000e+00,1.706437280575388886e-11
1.850000000000001088e-01,3.847629921481802717e-01,4.758844770915810152e+00,2.733500203175703214e-13,0.000000000000000000e+00,1.767560113998052541e-11
1.875000000000001110e-01,3.967071367761957346e-01,4.841855276838915145e+00,-1.384245975580129857e-12,0.000000000000000000e+00,1.824087572922371071e-11
1.900000000000001132e-01,4.088590154318565428e-01,4.925231772784044892e+00,-3.531090116555799139e-12,0.000000000000000000e+00,1.875776478105770996e-11
1.925000000000001155e-01,4.212195430984220224e-01,5.008974273212895234e+00,1.810406622625529006e-13,0.000000000000000000e+00,1.922001665243177611e-11
1.950000000000001177e-01,4.337896347961023302e-01,5.093082793029862998e+00,2.624616122630825239e-13,0.000000000000000000e+00,1.961270356251032710e-11
1.975000000000001199e-01,4.465702055808554727e-01,5.177557346379552783e+00,-6.354570018906296205e-13,0.000000000000000000e+00,1.993039458770314037e-11
2.000000000000001221e-01,4.595621705445577243e-01,5.262397947632158512e+00,1.521354552296631000e-12,0.000000000000000000e+00,2.016452327920874591e-11
2.025000000000001243e-01,4.727664448149754839e-01,5.347604611506080907e+00,-1.786823531698029043e-14,0.000000000000000000e+00,2.016452327920874591e-11
2.050000000000001266e-01,4.861839435569741963e-01,5.433177352105190039e+00,4.144132957594844541e-12,0.000000000000000000e+00,2.016452327920874591e-11
2.075000000000001288e-01,4.998155819712373771e-01,5.519116184897926658e+00,6.136474965664558401e-12,0.000000000000000000e+00,2.016452327920874591e-11
2.100000000000001310e-01,5.136622752968118544e-01,5.605421124577466330e+00,3.031752582503863593e-12,0.000000000000000000e+00,2.016452327920874591e-11
2.125000000000001332e-01,5.277249989662702312e-01,5.691987268386426102e+00,1.450615381975652767e-12,0.000000000000000000e+00,1.988789037101931912e-11
2.150000000000001354e-01,5.420040709182271099e-01,5.778389167405711291e+00,3.644862055741940717e-12,0.000000000000000000e+00,1.950910158097700823e-11
2.175000000000001377e-01,5.564990275838604949e-01,5.864579621918275976e+00,3.212665922506672406e-12,0.000000000000000000e+00,1.903107540145152254e-11
2.200000000000001399e-01,5.712093403307874073e-01,5.950558594859427508e+00,3.797897823642539827e-12,0.000000000000000000e+00,1.845774420248161622e-11
2.225000000000001421e-01,5.861344804353353366e-01,6.036326050194308124e+00,2.775464105749420139e-13,0.000000000000000000e+00,1.779769889755271725e-11
2.250000000000001443e-01,6.012739190820690638e-01,6.121881951119767962e+00,3.235505824413431431e-13,0.000000000000000000e+00,1.704536756365353518e-11
2.275000000000001465e-01,6.166271273645252959e-01,6.207226261591793914e+00,-2.755351368468116144e-12,0.000000000000000000e+00,1.621293110456454447e-11
2.300000000000001488e-01,6.321935762864874242e-01,6.292358946057836633e+00,-6.579289743941163118e-12,0.000000000000000000e+00,1.529244844035037537e-11
2.325000000000001510e-01,6.479727367626344492e-01,6.377279968832540114e+00,-1.219859029522380522e-11,0.000000000000000000e+00,1.427278520966540338e-11
2.350000000000001532e-01,6.639640796187542549e-01,6.461989294678905260e+00,-1.060703719527445611e-11,0.000000000000000000e+00,1.311922969875917764e-11
2.375000000000001554e-01,6.801670755926623180e-01,6.546486890116235635e+00,-1.691352120677354606e-11,0.000000000000000000e+00,1.183669961124089905e-11
2.400000000000001577e-01,6.965811953443415971e-01,6.630772728157801943e+00,-1.828687704420324513e-11,0.000000000000000000e+00,1.037853641230595372e-11
2.425000000000001599e-01,7.132059094667089205e-01,6.714846783902380878e+00,-2.092394006133037291e-11,0.000000000000000000e+00,8.729924625418184499e-12
2.450000000000001621e-01,7.300406884899852678e-01,6.798709032635496641e+00,-2.912508245880452047e-11,0.000000000000000000e+00,6.851572409475903851e-12
2.475000000000001643e-01,7.470850028823683431e-01,6.882359449297363874e+00,-2.632601409956701373e-11,0.000000000000000000e+00,4.643933827563255580e-12
2.500000000000001665e-01,7.643383230491864744e-01,6.965798008435769795e+00,-2.515014406923680491e-11,0.000000000000000000e+00,2.142899485217780209e-12
2.525000000000001688e-01,7.818001193317692943e-01,7.049024683789372858e+00,-3.030377986686060727e-11,0.000000000000000000e+00,-6.420749862607232578e-13
2.550000000000001710e-01,7.994698620060932681e-01,7.132039450079857623e+00,-2.891222907251964254e-11,0.000000000000000000e+00,-3.804562949383293822e-12
2.575000000000001732e-01,8.173470212842836036e-01,7.214842280417783194e+00,-2.817247100445771468e-11,0.000000000000000000e+00,-7.314728872543551896e-12
2.600000000000001754e-01,8.354310673112399499e-01,7.297433148054704333e+00,-3.110379824979050500e-11,0.000000000000000000e+00,-1.110699730363661665e-11
2.625000000000001776e-01,8.537214701648428994e-01,7.379812025977852130e+00,-3.352928138704545161e-11,0.000000000000000000e+00,-1.526361528463147259e-11
2.650000000000001799e-01,8.722176998555299932e-01,7.461978887110909398e+00,-3.625774913430825512e-11,0.000000000000000000e+00,-1.983954416434133078e-11
2.675000000000001821e-01,8.909192263254875899e-01,7.543933703805353552e+00,-3.798862387234638274e-11,0.000000000000000000e+00,-2.501259828762050875e-11
2.700000000000001843e-01,9.098255194478767072e-01,7.625676448375974914e+00,-4.011643099506844038e-11,0.000000000000000000e+00,-3.075238641428492928e-11
2.725000000000001865e-01,9.289360490265400339e-01,7.707207092949339255e+00,-4.108122657017819929e-11,0.000000000000000000e+00,-3.710943431017969315e-11
2.750000000000001887e-01,9.482502847955408543e-01,7.788525609479905576e+00,-4.452323692482668493e-11,0.000000000000000000e+00,-4.415047698172105470e-11
2.775000000000001910e-01,9.677676964187406083e-01,7.869631969765078949e+00,-4.622576211891360539e-11,0.000000000000000000e+00,-5.182505840170363743e-11
2.800000000000001932e-01,9.874877534894149766e-01,7.950526145459609673e+00,-4.381614929939803915e-11,0.000000000000000000e+00,-6.021638658062227442e-11
2.825000000000001954e-01,1.007409925529904493e+00,8.031208108089016307e+00,-4.527048245090319861e-11,0.000000000000000000e+00,-6.952368128491855713e-11
2.850000000000001976e-01,1.027533681991298131e+00,8.111677829061934020e+00,-3.695005937330746429e-11,0.000000000000000000e+00,-7.981870985442491746e-11
2.875000000000001998e-01,1.047858492253148421e+00,8.191935279681995752e+00,-3.974705261438170771e-11,0.000000000000000000e+00,-9.145031313794172263e-11
2.900000000000002021e-01,1.068383825623214767e+00,8.271980431159089875e+00,-4.255168758989235964e-11,0.000000000000000000e+00,-1.044910649779542345e-10
2.925000000000002043e-01,1.089109151337234849e+00,8.351813254619679938e+00,-4.853342353421203646e-11,0.000000000000000000e+00,-1.190507834643376929e-10
2.950000000000002065e-01,1.110033938558722122e+00,8.431433721116691871e+00,-5.920075709392168361e-11,0.000000000000000000e+00,-1.352354789416941816e-10
2.975000000000002087e-01,1.131157656378786625e+00,8.510841801638887816e+00,-6.467752042953489078e-11,0.000000000000000000e+00,-1.529233165827423842e-10
3.000000000000002109e-01,1.152479773815979769e+00,8.590037467119426395e+00,-5.722988502009771386e-11,0.000000000000000000e+00,-1.721241773587336753e-10
3.025000000000002132e-01,1.173999759816159782e+00,8.669020688444074807e+00,-8.731604024606051572e-11,0.000000000000000000e+00,-1.931426471452638251e-10
3.050000000000002154e-01,1.195717083252378021e+00,8.747791436459078085e+00,-8.924689056614976312e-11,0.000000000000000000e+00,-2.157184694009270185e-10
3.075000000000002176e-01,1.217631212924783490e+00,8.826349681978262751e+00,-1.004079523472209004e-10,0.000000000000000000e+00,-2.399826579644636529e-10
3.100000000000002198e-01,1.239741617560546239e+00,8.904695395789840262e+00,-1.343490504328561580e-10,0.000000000000000000e+00,-2.659630091559078843e-10
3.125000000000002220e-01,1.262047765813796518e+00,8.982828548663157164e+00,-1.112515013468969283e-10,0.000000000000000000e+00,-2.934008008244093370e-10
3.150000000000002243e-01,1.284549126265581709e+00,9.060749111354514440e+00,-1.335881095995289935e-10,0.000000000000000000e+00,-3.225406416753020903e-10
3.175000000000002265e-01,1.307245167423836341e+00,9.138457054612951325e+00,-1.444891345706117670e-10,0.000000000000000000e+00,-3.534298137278168370e-10
3.200000000000002287e-01,1.330135357723366774e+00,9.215952349185414505e+00,-1.886759448510920253e-10,0.000000000000000000e+00,-3.860872810728041809e-10
3.225000000000002309e-01,1.353219165525849421e+00,9.293234965821918436e+00,-1.487371492399313853e-10,0.000000000000000000e+00,-4.201950027058410271e-10
3.250000000000002331e-01,1.376496059119840742e+00,9.370304875280410783e+00,-1.467837636981476654e-10,0.000000000000000000e+00,-4.561462261501087264e-10
