Time (s),Altitude (m),Velocity (m/s),Angular Velocity (rad/s),Fin Cant Angle (deg),Angular Position (deg)
0.000000000000000000e+00,1.000000000000000021e-02,0.000000000000000000e+00,0.000000000000000000e+00,0.000000000000000000e+00,0.000000000000000000e+00
2.500000000000000052e-03,9.986386637770287844e-03,-1.993609493071785491e-02,0.000000000000000000e+00,0.000000000000000000e+00,0.000000000000000000e+00
5.000000000000000104e-03,9.928091511300741329e-03,-3.078551212329837944e-02,0.000000000000000000e+00,0.000000000000000000e+00,0.000000000000000000e+00
7.499999999999999722e-03,9.847831998047854030e-03,-3.254704831492173656e-02,0.000000000000000000e+00,0.000000000000000000e+00,0.000000000000000000e+00
1.000000000000000021e-02,9.768328046717161123e-03,-2.522026971884945221e-02,0.000000000000000000e+00,0.000000000000000000e+00,0.000000000000000000e+00
1.250000000000000069e-02,9.712300690459302679e-03,-8.804742584838504832e-03,0.000000000000000000e+00,0.000000000000000000e+00,0.000000000000000000e+00
1.500000000000000118e-02,9.702472047026648380e-03,1.669996704095533246e-02,0.000000000000000000e+00,0.000000000000000000e+00,0.000000000000000000e+00
1.750000000000000167e-02,9.761565319186723752e-03,5.129429192061638748e-02,0.000000000000000000e+00,0.000000000000000000e+00,0.000000000000000000e+00
2.000000000000000042e-02,9.912304785071556629e-03,9.497864827910848518e-02,0.000000000000000000e+00,0.000000000000000000e+00,0.000000000000000000e+00
2.249999999999999917e-02,1.017741574687199176e-02,1.477534528005219061e-01,0.000000000000000000e+00,0.000000000000000000e+00,0.000000000000000000e+00
2.499999999999999792e-02,1.058034265480424160e-02,2.068413616046106407e-01,0.000000000000000000e+00,0.000000000000000000e+00,0.000000000000000000e+00
2.749999999999999667e-02,1.113119658829989089e-02,2.664543385831831812e-01,0.000000000000000000e+00,0.000000000000000000e+00,0.000000000000000000e+00
2.999999999999999542e-02,1.183129023482777480e-02,3.264324381581879542e-01,0.000000000000000000e+00,0.000000000000000000e+00,0.000000000000000000e+00
3.249999999999999417e-02,1.268153641719898563e-02,3.867756891951833476e-01,0.000000000000000000e+00,0.000000000000000000e+00,0.000000000000000000e+00
3.499999999999999639e-02,1.368284803045179479e-02,4.474841206324756682e-01,0.000000000000000000e+00,0.000000000000000000e+00,0.000000000000000000e+00
3.749999999999999861e-02,1.483613804197051779e-02,5.085577613865913671e-01,0.000000000000000000e+00,0.000000000000000000e+00,0.000000000000000000e+00
4.000000000000000083e-02,1.614231949139366407e-02,5.699966402988199121e-01,0.000000000000000000e+00,0.000000000000000000e+00,0.000000000000000000e+00
4.250000000000000305e-02,1.760230549040361220e-02,6.318007861021698313e-01,0.000000000000000000e+00,0.000000000000000000e+00,0.000000000000000000e+00
4.500000000000000527e-02,1.921700922244156187e-02,6.939702273989915016e-01,0.000000000000000000e+00,0.000000000000000000e+00,0.000000000000000000e+00
4.750000000000000749e-02,2.098734394237085354e-02,7.565049926446854034e-01,0.000000000000000000e+00,0.000000000000000000e+00,0.000000000000000000e+00
5.000000000000000971e-02,2.291422297610212419e-02,8.194051101351639277e-01,0.000000000000000000e+00,0.000000000000000000e+00,0.000000000000000000e+00
5.250000000000001193e-02,2.499855971297185522e-02,8.826704909297805601e-01,0.000000000000000000e+00,0.000000000000000000e+00,0.000000000000000000e+00
5.500000000000001416e-02,2.724126717522909122e-02,9.463009800484125655e-01,0.000000000000000000e+00,0.000000000000000000e+00,0.000000000000000000e+00
5.750000000000001638e-02,2.964325809674067322e-02,1.010296519119111558e+00,0.000000000000000000e+00,0.000000000000000000e+00,0.000000000000000000e+00
6.000000000000001860e-02,3.220544508084002139e-02,1.074657101502155987e+00,0.000000000000000000e+00,0.000000000000000000e+00,0.000000000000000000e+00
6.250000000000001388e-02,3.492874077394496346e-02,1.139382882823476661e+00,0.000000000000000000e+00,0.000000000000000000e+00,0.000000000000000000e+00
6.500000000000001610e-02,3.781405834545586986e-02,1.204474428946189057e+00,0.000000000000000000e+00,0.000000000000000000e+00,0.000000000000000000e+00
6.750000000000001832e-02,4.086231283381676349e-02,1.269932197945976116e+00,0.000000000000000000e+00,0.000000000000000000e+00,0.000000000000000000e+00
7.000000000000002054e-02,4.407441932346246177e-02,1.335755027340851830e+00,0.000000000000000000e+00,0.000000000000000000e+00,0.000000000000000000e+00
7.250000000000002276e-02,4.745128973394023564e-02,1.401942508797461739e+00,0.000000000000000000e+00,0.000000000000000000e+00,0.000000000000000000e+00
7.500000000000002498e-02,5.099383605188344271e-02,1.468495204030400902e+00,0.000000000000000000e+00,0.000000000000000000e+00,0.000000000000000000e+00
7.750000000000002720e-02,5.470297154462782502e-02,1.535413414098094620e+00,0.000000000000000000e+00,0.000000000000000000e+00,0.000000000000000000e+00
8.000000000000002942e-02,5.857961011659372497e-02,1.602697297218390826e+00,0.000000000000000000e+00,0.000000000000000000e+00,0.000000000000000000e+00
8.250000000000003164e-02,6.262466601782284981e-02,1.670346946558012968e+00,0.000000000000000000e+00,0.000000000000000000e+00,0.000000000000000000e+00
8.500000000000003386e-02,6.683905370592527206e-02,1.738362422529142304e+00,0.000000000000000000e+00,0.000000000000000000e+00,0.000000000000000000e+00
8.750000000000003608e-02,7.122368777640268600e-02,1.806743768716784215e+00,0.000000000000000000e+00,0.000000000000000000e+00,0.000000000000000000e+00
9.000000000000003830e-02,7.577948292708008848e-02,1.875491020265315223e+00,0.000000000000000000e+00,0.000000000000000000e+00,0.000000000000000000e+00
9.250000000000004052e-02,8.050735393977714871e-02,1.944604207520998829e+00,0.000000000000000000e+00,0.000000000000000000e+00,0.000000000000000000e+00
9.500000000000004274e-02,8.540821567023697269e-02,2.014083358408467639e+00,0.000000000000000000e+00,0.000000000000000000e+00,0.000000000000000000e+00
9.750000000000004496e-02,9.048298304297153205e-02,2.083928499614137841e+00,0.000000000000000000e+00,0.000000000000000000e+00,0.000000000000000000e+00
1.000000000000000472e-01,9.573257104866918221e-02,2.154139657216998849e+00,0.000000000000000000e+00,0.000000000000000000e+00,0.000000000000000000e+00
1.025000000000000494e-01,1.011578947518895349e-01,2.224716967181142202e+00,0.000000000000000000e+00,0.000000000000000000e+00,0.000000000000000000e+00
1.050000000000000516e-01,1.067598696679873393e-01,2.295660560235741166e+00,-6.504867613768541945e-17,0.000000000000000000e+00,0.000000000000000000e+00
1.075000000000000538e-01,1.125394115134530221e-01,2.366970452837276362e+00,-1.825233013522425392e-15,0.000000000000000000e+00,0.000000000000000000e+00
1.100000000000000561e-01,1.184974360466696935e-01,2.438646662904109252e+00,-5.992999186764126789e-15,0.000000000000000000e+00,-2.323602980804797361e-16
1.125000000000000583e-01,1.246348590720156857e-01,2.510689210215461209e+00,3.463759779028402447e-14,0.000000000000000000e+00,-5.443698329686049128e-16
1.150000000000000605e-01,1.309525964434393175e-01,2.583098115128112049e+00,2.685972507701583782e-14,0.000000000000000000e+00,-8.536994043806615923e-15
1.175000000000000627e-01,1.374515640667083316e-01,2.655873398793518358e+00,1.051388055795510161e-13,0.000000000000000000e+00,-2.336689521800435821e-14
1.200000000000000649e-01,1.441326779012691572e-01,2.729015084306856576e+00,8.334456660929598065e-14,0.000000000000000000e+00,-5.557562681379210325e-14
1.225000000000000672e-01,1.509968539642035923e-01,2.802523194173967003e+00,-2.219962431617182418e-13,0.000000000000000000e+00,-1.169817404026858374e-13
1.250000000000000555e-01,1.580450083286718543e-01,2.876397752385877471e+00,-2.343789361835293824e-13,0.000000000000000000e+00,-2.034802678194408051e-13
1.275000000000000577e-01,1.652780571291813938e-01,2.950638782161308704e+00,-4.697666061920880538e-13,0.000000000000000000e+00,-3.524440013842776649e-13
1.300000000000000600e-01,1.726969165579438081e-01,3.025246306704065802e+00,-1.763127959549294704e-14,0.000000000000000000e+00,-5.808524203794543005e-13
1.325000000000000622e-01,1.803025028646554895e-01,3.100220348541297355e+00,-1.624337200439190620e-12,0.000000000000000000e+00,-9.432461878718254250e-13
1.350000000000000644e-01,1.880957323548161919e-01,3.175560928953102824e+00,-3.235129158373903238e-12,0.000000000000000000e+00,-1.423036672913402434e-12
1.375000000000000666e-01,1.960775213867788358e-01,3.251268068736439254e+00,-4.994056594274152689e-12,0.000000000000000000e+00,-2.050132667655462734e-12
1.400000000000000688e-01,2.042487863685145122e-01,3.327341782987615737e+00,-1.207056344417366509e-11,0.000000000000000000e+00,-2.826638676674836573e-12
1.425000000000000711e-01,2.126104437454320595e-01,3.403782086998639933e+00,-9.539028940193648021e-12,0.000000000000000000e+00,-3.600479521222698060e-12
1.450000000000000733e-01,2.211634099978052881e-01,3.480588990229926960e+00,-4.569889806340941519e-12,0.000000000000000000e+00,-4.447191577891848318e-12
1.475000000000000755e-01,2.299086016286380763e-01,3.557762498352295299e+00,-1.737824004990696733e-11,0.000000000000000000e+00,-5.499267575130532237e-12
1.500000000000000777e-01,2.388469351510914551e-01,3.635302609981312827e+00,-1.849059941411401078e-11,0.000000000000000000e+00,-6.441733680368936085e-12
1.525000000000000799e-01,2.479793270636971025e-01,3.713209231518800557e+00,-2.943331947357716507e-11,0.000000000000000000e+00,-7.373715809657240560e-12
1.550000000000000822e-01,2.573066935412448020e-01,3.791482266723899208e+00,-3.905671133362026833e-11,0.000000000000000000e+00,-7.879833413553706840e-12
1.575000000000000844e-01,2.668299506115941466e-01,3.870121701985675067e+00,-6.503751964556804093e-11,0.000000000000000000e+00,-7.507055307406423174e-12
1.600000000000000866e-01,2.765500142651379778e-01,3.949127517300819790e+00,-6.437007247831935665e-11,0.000000000000000000e+00,-5.435759407846409826e-12
1.625000000000000888e-01,2.864678004383914289e-01,4.028499685480667836e+00,-4.362469094451607256e-11,0.000000000000000000e+00,-1.318111098469677854e-12
1.650000000000000910e-01,2.965842249956188725e-01,4.108238170785088350e+00,-3.253108809915325239e-11,0.000000000000000000e+00,4.981967209003044313e-12
1.675000000000000933e-01,3.069002036982603210e-01,4.188342903023238861e+00,-7.221834766027709690e-12,0.000000000000000000e+00,1.361398737514187191e-11
1.700000000000000955e-01,3.174166521240426309e-01,4.268813819613145100e+00,-4.438411445935421854e-11,0.000000000000000000e+00,2.458072663643053674e-11
1.725000000000000977e-01,3.281344856984013680e-01,4.349650853052740906e+00,5.803658782482417035e-11,0.000000000000000000e+00,3.914722306595896986e-11
1.750000000000000999e-01,3.390546196712520555e-01,4.430853923336131039e+00,1.647625632845505132e-10,0.000000000000000000e+00,5.604410257715264883e-11
1.775000000000001021e-01,3.501779690849858295e-01,4.512422936585159583e+00,6.539134734856790210e-11,0.000000000000000000e+00,7.393002690666002814e-11
1.800000000000001044e-01,3.615054487389730564e-01,4.594357783551868302e+00,1.012894971288301561e-10,0.000000000000000000e+00,9.476586286051362784e-11
1.825000000000001066e-01,3.730379731502485585e-01,4.676658337996000725e+00,9.747351994170928345e-11,0.000000000000000000e+00,1.191874813379777434e-10
1.850000000000001088e-01,3.847764565100758039e-01,4.759324454923558712e+00,2.065131219470378730e-10,0.000000000000000000e+00,1.468070007306388979e-10
1.875000000000001110e-01,3.967218126360095298e-01,4.842355968670837285e+00,1.398142928828588399e-10,0.000000000000000000e+00,1.766323936020435502e-10
1.900000000000001132e-01,4.088749549190969779e-01,4.925752690838723247e+00,9.488554230503933628e-11,0.000000000000000000e+00,2.098722930768875950e-10
1.925000000000001155e-01,4.212367962658108977e-01,5.009514408052828216e+00,1.564961116577870381e-10,0.000000000000000000e+00,2.483582605285800045e-10
1.950000000000001177e-01,4.338082490342907160e-01,5.093640879541628586e+00,2.968191757674111888e-12,0.000000000000000000e+00,2.916675507510970894e-10
1.975000000000001199e-01,4.465902249644210231e-01,5.178131834535368405e+00,3.957517082098200822e-10,0.000000000000000000e+00,3.431383193408321549e-10
2.000000000000001221e-01,4.595836351012985155e-01,5.262986969458830266e+00,5.917034645249293521e-10,0.000000000000000000e+00,3.979058169224853520e-10
2.025000000000001243e-01,4.727893897276398971e-01,5.348206444070463306e+00,5.179083043175434459e-10,0.000000000000000000e+00,4.543886642052526925e-10
2.050000000000001266e-01,4.862084000610039092e-01,5.433790568024825518e+00,7.593235103118320385e-10,0.000000000000000000e+00,5.120817308164258244e-10
2.075000000000001288e-01,4.998415776672650024e-01,5.519739243294011999e+00,8.640895864495908790e-10,0.000000000000000000e+00,5.686642054259598568e-10
2.100000000000001310e-01,5.136898338701719746e-01,5.606052376820522376e+00,1.324517780516442696e-09,0.000000000000000000e+00,6.213938285113178429e-10
2.125000000000001332e-01,5.277541399205825101e-01,5.692624963575646291e+00,7.178873864916461372e-10,0.000000000000000000e+00,6.654353972212703780e-10
2.150000000000001354e-01,5.420348093243609888e-01,5.779031457998854648e+00,9.887372120312536839e-10,0.000000000000000000e+00,7.061344405461540123e-10
2.175000000000001377e-01,5.565313738372623664e-01,5.865224564214506664e+00,5.318229835514771800e-10,0.000000000000000000e+00,7.407907192540667060e-10
2.200000000000001399e-01,5.712432999145671264e-01,5.951204153734622970e+00,4.483639095587809679e-10,0.000000000000000000e+00,7.739991735810183542e-10
2.225000000000001421e-01,5.861700536927834104e-01,6.036970102211833833e+00,-5.970285009748880756e-11,0.000000000000000000e+00,8.045258171211731404e-10
2.250000000000001443e-01,6.013111009997974543e-01,6.122522289112544591e+00,-4.635311490044605571e-11,0.000000000000000000e+00,8.377872431476681806e-10
2.275000000000001465e-01,6.166659073642403177e-01,6.207860597408707548e+00,-4.974419310853683996e-10,0.000000000000000000e+00,8.738746708374787240e-10
2.300000000000001488e-01,6.322339380240760143e-01,6.292984913291589599e+00,-4.724283638744558028e-10,0.000000000000000000e+00,9.164291439063436957e-10
2.325000000000001510e-01,6.480146579344988611e-01,6.377895125909297747e+00,3.479272681993513618e-10,0.000000000000000000e+00,9.662501228759874260e-10
2.350000000000001532e-01,6.640075317751815698e-01,6.462591127117069512e+00,3.674392354328423963e-10,0.000000000000000000e+00,1.017761832144812216e-09
2.375000000000001554e-01,6.802120239569039439e-01,6.547072811244864177e+00,6.812542976493327406e-11,0.000000000000000000e+00,1.069385551662836304e-09
2.400000000000001577e-01,6.966275986276214693e-01,6.631340074886727720e+00,3.122678282934852431e-10,0.000000000000000000e+00,1.122849356212270024e-09
2.425000000000001599e-01,7.132537196779992206e-01,6.715392816693170452e+00,-5.173367181004724326e-10,0.000000000000000000e+00,1.178523232254701302e-09
2.450000000000001621e-01,7.300898507464486098e-01,6.799230937186656831e+00,-3.434053003812419682e-10,0.000000000000000000e+00,1.242097448123389919e-09
2.475000000000001643e-01,7.471354552237061686e-01,6.882854338592863996e+00,8.785328880832399370e-10,0.000000000000000000e+00,1.311366843027234312e-09
2.500000000000001665e-01,7.643899962569964401e-01,6.966262924678451540e+00,6.370370891523768256e-10,0.000000000000000000e+00,1.379206550088940500e-09
2.525000000000001688e-01,7.818529368829844062e-01,7.049458626868194244e+00,1.729482529846196733e-09,0.000000000000000000e+00,1.445625117602773795e-09
2.550000000000001710e-01,7.995237469820020149e-01,7.132443293970879061e+00,2.971088040018221010e-09,0.000000000000000000e+00,1.505874620649553498e-09
2.575000000000001732e-01,8.174018988425221233e-01,7.215216697578457961e+00,2.920956197040171828e-09,0.000000000000000000e+00,1.549833245397900648e-09
2.600000000000001754e-01,8.354868641711847843e-01,7.297778590633409834e+00,2.860928103607722370e-09,0.000000000000000000e+00,1.575792940519845855e-09
2.625000000000001776e-01,8.537781140468237995e-01,7.380128709012765853e+00,4.189369377446261123e-09,0.000000000000000000e+00,1.586562708865018890e-09
2.650000000000001799e-01,8.722751188790660581e-01,7.462266774165748018e+00,5.336981302366314659e-09,0.000000000000000000e+00,1.572217848638424846e-09
2.675000000000001821e-01,8.909773483741122435e-01,7.544192485934060777e+00,4.907031674220758926e-09,0.000000000000000000e+00,1.526699455262872481e-09
2.700000000000001843e-01,9.098842714721000480e-01,7.625905414657724535e+00,5.838119468751489581e-09,0.000000000000000000e+00,1.449059793729870555e-09
2.725000000000001865e-01,9.289953559155406104e-01,7.707405147112836197e+00,6.187345508513756820e-09,0.000000000000000000e+00,1.336606556133204824e-09
2.750000000000001887e-01,9.483100685365676297e-01,7.788691372573472549e+00,5.238147336241562085e-09,0.000000000000000000e+00,1.187976101712193210e-09
2.775000000000001910e-01,9.678278875467323239e-01,7.869751085007934854e+00,6.176205474651047987e-09,0.000000000000000000e+00,1.003702644503409619e-09
2.800000000000001932e-01,9.875482080263436879e-01,7.950584915415786824e+00,5.273887944064088688e-09,0.000000000000000000e+00,7.810088918541567680e-10
2.825000000000001954e-01,1.007470492200529977e+00,8.031205827282036580e+00,6.621097917546306496e-09,0.000000000000000000e+00,5.239724037146322201e-10
2.850000000000001976e-01,1.027594207749388033e+00,8.111613789731382695e+00,6.289212636083775648e-09,0.000000000000000000e+00,2.270403477390174785e-10
2.875000000000001998e-01,1.047918822297913444e+00,8.191808816800408621e+00,7.193820494746444857e-09,0.000000000000000000e+00,-1.100298752099510467e-10
2.900000000000002021e-01,1.068443803537203252e+00,8.271790984573614836e+00,7.349652059499165532e-09,0.000000000000000000e+00,-4.914844663416663559e-10
2.925000000000002043e-01,1.089168619390342929e+00,8.351560451734375334e+00,7.148593381692895211e-09,0.000000000000000000e+00,-9.169216032191318281e-10
2.950000000000002065e-01,1.110092738231684306e+00,8.431117483809604352e+00,6.827668309441533122e-09,0.000000000000000000e+00,-1.385538197181032579e-09
2.975000000000002087e-01,1.131215629168884185e+00,8.510462481316581673e+00,6.037764352830035702e-09,0.000000000000000000e+00,-1.895345760492486181e-09
3.000000000000002109e-01,1.152536762397540215e+00,8.589596011911536877e+00,6.874561922283236205e-09,0.000000000000000000e+00,-2.442089193310512574e-09
3.025000000000002132e-01,1.174055609553795065e+00,8.668516913910689681e+00,6.071377376530018782e-09,0.000000000000000000e+00,-3.028199325655568076e-09
3.050000000000002154e-01,1.195771637319847258e+00,8.747223547455590165e+00,4.857512962464584286e-09,0.000000000000000000e+00,-3.651677280873036434e-09
3.075000000000002176e-01,1.217684310032590478e+00,8.825715927290406881e+00,5.537377013264125296e-09,0.000000000000000000e+00,-4.306436427259931432e-09
3.100000000000002198e-01,1.239793092067331681e+00,8.903994070918049175e+00,7.236575718292979429e-09,0.000000000000000000e+00,-4.995615198719650435e-09
3.125000000000002220e-01,1.262097447844698461e+00,8.982057998617584360e+00,8.065504606289180064e-09,0.000000000000000000e+00,-5.723726718047451653e-09
3.150000000000002243e-01,1.284596841837589043e+00,9.059907733460974555e+00,5.824665522914373820e-09,0.000000000000000000e+00,-6.493880851534763500e-09
3.175000000000002265e-01,1.307290738546461162e+00,9.137543364661258494e+00,4.383150164849722704e-09,0.000000000000000000e+00,-7.297943410238550844e-09
3.200000000000002287e-01,1.330178602965820467e+00,9.214965206250202101e+00,4.500240340765452701e-09,0.000000000000000000e+00,-8.130859460999909838e-09
3.225000000000002309e-01,1.353259900667063587e+00,9.292173358884939560e+00,3.067687010522339638e-09,0.000000000000000000e+00,-8.993535211873701305e-09
3.250000000000002331e-01,1.376534097458753214e+00,9.369167877652513354e+00,5.083453081771006024e-09,0.000000000000000000e+00,-9.880362535651851215e-09
3.275000000000002354e-01,1.400000659288633154e+00,9.445948820232187515e+00,5.553189856695175357e-09,0.000000000000000000e+00,-1.079718105316696815e-08
