Time (s),Altitude (m),Velocity (m/s),Angular Velocity (rad/s),Fin Cant Angle (deg),Angular Position (deg)
0.000000000000000000e+00,1.000000000000000021e-02,0.000000000000000000e+00,1.193218592362137299e-10,0.000000000000000000e+00,9.766628610231390086e-12
2.500000000000000052e-03,9.986392489475770864e-03,-1.994104223774813625e-02,1.000505962628861424e-10,0.000000000000000000e+00,-7.184931369635431358e-12
5.000000000000000104e-03,9.928082256198565367e-03,-3.083184598444142777e-02,2.376602416125600336e-10,0.000000000000000000e+00,-1.171388102567235877e-10
7.499999999999999722e-03,9.847668169286409937e-03,-3.271738907978276323e-02,-1.332567332150463601e-09,0.000000000000000000e+00,-3.383924084289736439e-10
1.000000000000000021e-02,9.767639142157542517e-03,-2.563838273576568919e-02,-2.313941822218369585e-09,0.000000000000000000e+00,-7.073308731739933657e-10
1.250000000000000069e-02,9.710385050681374225e-03,-9.630826917508265861e-03,6.418977722839588075e-09,0.000000000000000000e+00,-1.102223703832515016e-09
1.500000000000000118e-02,9.698208331782370503e-03,1.527367338100904526e-02,-8.526702482239817140e-09,0.000000000000000000e+00,-2.121331735007340121e-09
1.750000000000000167e-02,9.753334793076155751e-03,4.904759585655332071e-02,-7.810475061828615109e-09,0.000000000000000000e+00,-3.264403032437106183e-09
2.000000000000000042e-02,9.897923646078185186e-03,9.166719526201251578e-02,5.304023275164646435e-09,0.000000000000000000e+00,-4.526326685825764934e-09
2.249999999999999917e-02,1.015407677828197332e-02,1.431122056521425268e-01,1.628967105160270295e-08,0.000000000000000000e+00,-6.512737397019975953e-09
2.499999999999999792e-02,1.054456531524862288e-02,2.005879506031308657e-01,1.114957932326406808e-08,0.000000000000000000e+00,-9.539978102446192467e-09
2.749999999999999667e-02,1.107878583350254374e-02,2.582924639020094393e-01,1.226528101564060520e-08,0.000000000000000000e+00,-1.387187509489633860e-08
2.999999999999999542e-02,1.175730319840581108e-02,3.160545509007570697e-01,-2.854109974223383463e-08,0.000000000000000000e+00,-1.960860771866797695e-08
3.249999999999999417e-02,1.258025584099315038e-02,3.738656377068531045e-01,-6.852791498014795577e-08,0.000000000000000000e+00,-2.598409001260990704e-08
3.499999999999999639e-02,1.354776219371694318e-02,4.317196019435156629e-01,-7.855802041068286651e-08,0.000000000000000000e+00,-3.237244249386695611e-08
3.749999999999999861e-02,1.465992670690625943e-02,4.896125801061967930e-01,-1.045826858939092590e-07,0.000000000000000000e+00,-3.842266221103577476e-08
4.000000000000000083e-02,1.591684539111900415e-02,5.475427839377617900e-01,-1.288087802703732823e-07,0.000000000000000000e+00,-4.382664266899085459e-08
4.250000000000000305e-02,1.731861090443953879e-02,6.055103261798588932e-01,-6.689216190827511289e-08,0.000000000000000000e+00,-4.798876057411014041e-08
4.500000000000000527e-02,1.886531720845355600e-02,6.635170542370949498e-01,-1.335677789066073526e-07,0.000000000000000000e+00,-5.173948923859151728e-08
4.750000000000000749e-02,2.055706381450342693e-02,7.215663924960724618e-01,-1.164426523633778498e-07,0.000000000000000000e+00,-5.417667491176911245e-08
5.000000000000000971e-02,2.239395963938037304e-02,7.796631926248837052e-01,-1.320367341638808585e-07,0.000000000000000000e+00,-5.513619345831863230e-08
5.250000000000001193e-02,2.437612075279381105e-02,8.376897847309716649e-01,-7.738314232682097684e-08,0.000000000000000000e+00,-5.450956193043781865e-08
5.500000000000001416e-02,2.650323651085915999e-02,8.955021289538599438e-01,-1.192999640041751491e-07,0.000000000000000000e+00,-5.268419281707321866e-08
5.750000000000001638e-02,2.877475194904225222e-02,9.530654962152194098e-01,-2.693486517558497611e-08,0.000000000000000000e+00,-4.908301156091154764e-08
6.000000000000001860e-02,3.119002462479737378e-02,1.010343998403342214e+00,1.892633799385669709e-08,0.000000000000000000e+00,-4.477811823992608279e-08
6.250000000000001388e-02,3.374832172080282494e-02,1.067300591928258546e+00,-4.249921832352587427e-08,0.000000000000000000e+00,-4.018518790388849419e-08
6.500000000000001610e-02,3.644881715992580318e-02,1.123897084747430108e+00,-1.090701355257408797e-07,0.000000000000000000e+00,-3.464165778342382351e-08
6.750000000000001832e-02,3.929058873877329383e-02,1.180094146677517664e+00,-2.128588176795858742e-07,0.000000000000000000e+00,-2.736320711050220907e-08
7.000000000000002054e-02,4.227261528940236268e-02,1.235851324361326942e+00,-9.816080188542017014e-08,0.000000000000000000e+00,-1.756622167377363265e-08
7.250000000000002276e-02,4.539377388138204211e-02,1.291127060435315332e+00,7.855635544033287959e-09,0.000000000000000000e+00,-5.838676704543994817e-09
7.500000000000002498e-02,4.865283707387588891e-02,1.345878717357985144e+00,2.769319862088046958e-08,0.000000000000000000e+00,6.816639628255491341e-09
7.750000000000002720e-02,5.204847023032913023e-02,1.400062605934745408e+00,2.262294183005131428e-08,0.000000000000000000e+00,2.043405299021409590e-08
8.000000000000002942e-02,5.557922890678325401e-02,1.453634019224459006e+00,-2.070198523730714556e-07,0.000000000000000000e+00,3.495312221520991714e-08
8.250000000000003164e-02,5.924355632841394464e-02,1.506547271936154786e+00,-3.408574633302520100e-08,0.000000000000000000e+00,5.254523162227277706e-08
8.500000000000003386e-02,6.303978096746917781e-02,1.558755744927631026e+00,-1.033029914649598526e-07,0.000000000000000000e+00,7.217961676303172223e-08
8.750000000000003608e-02,6.696611423570925092e-02,1.610211936873382044e+00,-2.177133493935168240e-07,0.000000000000000000e+00,9.419121813656330665e-08
9.000000000000003830e-02,7.102064831086807306e-02,1.660867522414195996e+00,-3.080586766412793090e-07,0.000000000000000000e+00,1.196500738115258451e-07
9.250000000000004052e-02,7.520135411028013028e-02,1.710673415948393172e+00,-1.008239323027875391e-07,0.000000000000000000e+00,1.493632897012344911e-07
9.500000000000004274e-02,7.950607942902181147e-02,1.759579842714456444e+00,-2.679399225635514387e-07,0.000000000000000000e+00,1.819392445701331756e-07
9.750000000000004496e-02,8.393254725908502745e-02,1.807536417290104502e+00,-3.961043982267630803e-07,0.000000000000000000e+00,2.190572397151415206e-07
1.000000000000000472e-01,8.847835430903409903e-02,1.854492229032373096e+00,-3.907598670725684695e-07,0.000000000000000000e+00,2.612308271985032295e-07
1.025000000000000494e-01,9.314097260190533356e-02,1.900449453335480321e+00,-5.674706522681974396e-07,0.000000000000000000e+00,3.090791200400203973e-07
1.050000000000000516e-01,9.791793523180120085e-02,1.945416434705076414e+00,-3.339716533913961170e-07,0.000000000000000000e+00,3.637782624101445109e-07
1.075000000000000538e-01,1.028067429095470692e-01,1.989351398287297457e+00,-3.204749482111312862e-07,0.000000000000000000e+00,4.246583407532605295e-07
1.100000000000000561e-01,1.078047920280890970e-01,2.032212825186936467e+00,-4.936243542981306767e-07,0.000000000000000000e+00,4.917587612490197551e-07
1.125000000000000583e-01,1.129093753576297793e-01,2.073959554376929582e+00,-2.984466623623487739e-07,0.000000000000000000e+00,5.663492311858186490e-07
1.150000000000000605e-01,1.181176830000450068e-01,2.114550890282635986e+00,-5.127047698201309889e-07,0.000000000000000000e+00,6.478021476198398875e-07
1.175000000000000627e-01,1.234268036142781716e-01,2.153946713365032295e+00,-4.011186255148228365e-07,0.000000000000000000e+00,7.376442643178419028e-07
1.200000000000000649e-01,1.288337259200484364e-01,2.192107595165766032e+00,-4.059996139237465325e-07,0.000000000000000000e+00,8.355664297348113258e-07
1.225000000000000672e-01,1.343353404919868099e-01,2.228994917510726648e+00,-4.209715174665002598e-07,0.000000000000000000e+00,9.416492967045922922e-07
1.250000000000000555e-01,1.399284418535156616e-01,2.264570994678571036e+00,-8.696310782847751025e-07,0.000000000000000000e+00,1.056939491800888280e-06
1.275000000000000577e-01,1.456097308782196287e-01,2.298799199546681216e+00,-5.336564560024672853e-07,0.000000000000000000e+00,1.184051919182555708e-06
1.300000000000000600e-01,1.513758175082099422e-01,2.331644091544303077e+00,-4.601174727393465864e-07,0.000000000000000000e+00,1.321974719775880582e-06
1.325000000000000622e-01,1.572232237930263898e-01,2.363071545947913688e+00,-3.964823013050141254e-07,0.000000000000000000e+00,1.470250949299375935e-06
1.350000000000000644e-01,1.631483872540211155e-01,2.393048885279226212e+00,3.710486442558278607e-07,0.000000000000000000e+00,1.628674542421910231e-06
1.375000000000000666e-01,1.691476645743994478e-01,2.421545010826446909e+00,4.031278959596364200e-07,0.000000000000000000e+00,1.794647721442639868e-06
1.400000000000000688e-01,1.752173356235221524e-01,2.448530534441303974e+00,1.586509122103080444e-07,0.000000000000000000e+00,1.968378335800756940e-06
1.425000000000000711e-01,1.813536078053038236e-01,2.473977910686298465e+00,2.893336827093423682e-07,0.000000000000000000e+00,2.150893693646800196e-06
1.450000000000000733e-01,1.875526207405368018e-01,2.497861565520852700e+00,-2.125578836650718363e-07,0.000000000000000000e+00,2.342280164201782776e-06
1.475000000000000755e-01,1.938104512665280721e-01,2.520158024940272856e+00,-1.590302819377319933e-07,0.000000000000000000e+00,2.545000723467023435e-06
1.500000000000000777e-01,2.001231187602080241e-01,2.540846038607150081e+00,-8.077693842462824810e-07,0.000000000000000000e+00,2.759601269580668255e-06
1.525000000000000799e-01,2.064866153333257126e-01,2.560326877550444191e+00,-7.932701121467465438e-07,0.000000000000000000e+00,2.989793893405460616e-06
1.550000000000000822e-01,2.128983664059485303e-01,2.579024789367716064e+00,-1.557800644805305080e-06,0.000000000000000000e+00,3.234908585944336971e-06
1.575000000000000844e-01,2.193564237811567730e-01,2.596956686150224680e+00,-1.080209552980963016e-06,0.000000000000000000e+00,3.500120128953641274e-06
1.600000000000000866e-01,2.258588823964732539e-01,2.614140943090115687e+00,-8.076578341338164339e-07,0.000000000000000000e+00,3.783584488260914236e-06
1.625000000000000888e-01,2.324038839225963937e-01,2.630597289570398178e+00,-7.276314634251675769e-07,0.000000000000000000e+00,4.084713257700674292e-06
1.650000000000000910e-01,2.389896200851497343e-01,2.646346696973705725e+00,-6.017498058891694805e-07,0.000000000000000000e+00,4.403860314007658154e-06
1.675000000000000933e-01,2.456143357056798926e-01,2.661411263632137647e+00,-3.189240911862809847e-07,0.000000000000000000e+00,4.740638212473554201e-06
1.700000000000000955e-01,2.522763314530419021e-01,2.675814093940897198e+00,-6.499181078725462689e-07,0.000000000000000000e+00,5.095235111956810042e-06
1.725000000000000977e-01,2.589739662887584615e-01,2.689579175733855188e+00,-5.984082417130403766e-07,0.000000000000000000e+00,5.469234998273906087e-06
1.750000000000000999e-01,2.657056596061505571e-01,2.702731255526945819e+00,-6.193252005673293070e-07,0.000000000000000000e+00,5.862718390336081293e-06
1.775000000000001021e-01,2.724698930553710041e-01,2.715295709727741258e+00,-1.000942859605125165e-06,0.000000000000000000e+00,6.276635255293034284e-06
1.800000000000001044e-01,2.792652120451205033e-01,2.727298416522489610e+00,-4.465639597206830653e-07,0.000000000000000000e+00,6.713460116599671296e-06
1.825000000000001066e-01,2.860902269249193663e-01,2.738765626435775591e+00,-6.529957303206156350e-07,0.000000000000000000e+00,7.172348441988972576e-06
1.850000000000001088e-01,2.929436138419931335e-01,2.749723831943243546e+00,-1.013352504357382241e-06,0.000000000000000000e+00,7.654140576229432352e-06
1.875000000000001110e-01,2.998241152725548142e-01,2.760199638086420659e+00,7.392329847515484659e-09,0.000000000000000000e+00,8.161601849286779267e-06
1.900000000000001132e-01,3.067305402306928497e-01,2.770219634255264740e+00,-3.663432987795337214e-07,0.000000000000000000e+00,8.690948597220760587e-06
1.925000000000001155e-01,3.136617641575500381e-01,2.779810267513990407e+00,-4.555213274110849828e-08,0.000000000000000000e+00,9.245029079232315437e-06
1.950000000000001177e-01,3.206167284940598106e-01,2.788997718327411057e+00,-6.226298993414530779e-07,0.000000000000000000e+00,9.822200325304513395e-06
1.975000000000001199e-01,3.275944399449303712e-01,2.797807779205029988e+00,-3.966280251342680177e-07,0.000000000000000000e+00,1.042694567582398672e-05
2.000000000000001221e-01,3.345939694420610455e-01,2.806265736715236159e+00,5.755009802822782755e-07,0.000000000000000000e+00,1.105847352477163280e-05
2.025000000000001243e-01,3.416144428711214154e-01,2.814269122062794892e+00,1.068152027162720469e-06,0.000000000000000000e+00,1.171472091497398296e-05
2.050000000000001266e-01,3.486546019987674661e-01,2.821715619605900560e+00,1.710117583833068216e-06,0.000000000000000000e+00,1.239334628125976304e-05
2.075000000000001288e-01,3.557130685782386448e-01,2.828629885916130071e+00,1.591673525232329848e-06,0.000000000000000000e+00,1.309334874611915305e-05
2.100000000000001310e-01,3.627885258419779047e-01,2.835036241679920632e+00,1.827017497810590292e-06,0.000000000000000000e+00,1.381538655995642720e-05
2.125000000000001332e-01,3.698797649865770976e-01,2.840876167711348543e+00,1.961286355635957758e-06,0.000000000000000000e+00,1.455927297782360932e-05
2.150000000000001354e-01,3.769851198247621271e-01,2.845842829826705334e+00,2.954245743964841297e-06,0.000000000000000000e+00,1.532645809285355907e-05
2.175000000000001377e-01,3.841023838045149463e-01,2.849931354793381555e+00,3.392524559508996035e-06,0.000000000000000000e+00,1.611350576360006759e-05
2.200000000000001399e-01,3.912293797736923207e-01,2.853173717490303574e+00,3.571997339707909948e-06,0.000000000000000000e+00,1.691929718158594159e-05
2.225000000000001421e-01,3.983640102415693107e-01,2.855601359390915306e+00,2.585966814046359805e-06,0.000000000000000000e+00,1.774462311983924704e-05
2.250000000000001443e-01,4.055042559928845880e-01,2.857245097766651476e+00,3.030581519119772815e-06,0.000000000000000000e+00,1.859325874444814542e-05
2.275000000000001465e-01,4.126481744772387272e-01,2.858135039557487822e+00,3.642226872018686082e-06,0.000000000000000000e+00,1.946479300027484312e-05
2.300000000000001488e-01,4.197938979860619257e-01,2.858300499884123269e+00,3.555722234464963149e-06,0.000000000000000000e+00,2.035760754417791161e-05
2.325000000000001510e-01,4.269396316282439985e-01,2.857769925131454780e+00,2.752330672151045223e-06,0.000000000000000000e+00,2.127375814341340949e-05
2.350000000000001532e-01,4.340836511164909428e-01,2.856570821621378098e+00,3.015092252327419313e-06,0.000000000000000000e+00,2.221622791136455380e-05
2.375000000000001554e-01,4.412243003783470896e-01,2.854729689963634520e+00,2.967382347988818404e-06,0.000000000000000000e+00,2.318667784211092675e-05
2.400000000000001577e-01,4.483599890067966887e-01,2.852271965419671762e+00,3.150751265823488081e-06,0.000000000000000000e+00,2.418485313039595605e-05
2.425000000000001599e-01,4.554891895646098754e-01,2.849221963750455888e+00,2.799037035338777597e-06,0.000000000000000000e+00,2.521315165049843401e-05
2.450000000000001621e-01,4.626104347570237363e-01,2.845602833618935179e+00,2.765120936790755371e-06,0.000000000000000000e+00,2.627348779926178611e-05
2.475000000000001643e-01,4.697223144887667234e-01,2.841436515063580082e+00,3.148758489689266190e-06,0.000000000000000000e+00,2.736744722093877984e-05
2.500000000000001665e-01,4.768234728209357343e-01,2.836743704263724020e+00,3.977675643585649483e-06,0.000000000000000000e+00,2.849606384113242960e-05
2.525000000000001688e-01,4.839126248337789482e-01,2.831847295816073196e+00,3.571863428739726953e-06,0.000000000000000000e+00,2.965702359346553387e-05
2.550000000000001710e-01,4.909895921166714805e-01,2.827052638792017625e+00,3.388464554619304538e-06,0.000000000000000000e+00,3.085227012921844784e-05
2.575000000000001732e-01,4.980546253406394897e-01,2.822352300946610271e+00,3.548607170869949174e-06,0.000000000000000000e+00,3.208521070263567276e-05
2.600000000000001754e-01,5.051079556010125149e-01,2.817737134185133385e+00,3.581345159320332124e-06,0.000000000000000000e+00,3.335712553078787828e-05
2.625000000000001776e-01,5.121497901802428698e-01,2.813196369325452917e+00,4.091080334173941303e-06,0.000000000000000000e+00,3.466920554445707489e-05
2.650000000000001799e-01,5.191803085499960835e-01,2.808717715284358984e+00,4.190287162830121244e-06,0.000000000000000000e+00,3.602152318606280477e-05
2.675000000000001821e-01,5.261996586234268802e-01,2.804287461648307112e+00,3.891169272935306944e-06,0.000000000000000000e+00,3.741692061194835706e-05
2.700000000000001843e-01,5.332079532657792997e-01,2.799890583905324082e+00,4.293260521841889216e-06,0.000000000000000000e+00,3.885877253270577454e-05
2.725000000000001865e-01,5.402052670693785474e-01,2.795510850655088309e+00,3.599985021351154478e-06,0.000000000000000000e+00,4.034718001933116635e-05
2.750000000000001887e-01,5.471916333971922342e-01,2.791130931643547086e+00,3.243669627597752849e-06,0.000000000000000000e+00,4.188826983546930626e-05
2.775000000000001910e-01,5.541670416969570745e-01,2.786732506210125582e+00,2.796163253245019117e-06,0.000000000000000000e+00,4.348705331461051739e-05
2.800000000000001932e-01,5.611314350864290423e-01,2.782296371390641454e+00,2.634962628388331713e-06,0.000000000000000000e+00,4.514866308026248634e-05
2.825000000000001954e-01,5.680847082086735167e-01,2.777802549253805431e+00,2.679597789325126886e-06,0.000000000000000000e+00,4.687852944168324445e-05
2.850000000000001976e-01,5.750267053548493434e-01,2.773230392653677878e+00,2.338700046413718532e-06,0.000000000000000000e+00,4.868144005848890630e-05
2.875000000000001998e-01,5.819572188502613042e-01,2.768558688659758182e+00,3.447362830251059582e-06,0.000000000000000000e+00,5.056301573923374534e-05
2.900000000000002021e-01,5.888759876979241525e-01,2.763765759554352552e+00,3.847009889505391899e-06,0.000000000000000000e+00,5.252290940732824709e-05
2.925000000000002043e-01,5.957826964726212760e-01,2.758829560735425179e+00,5.145566641963165323e-06,0.000000000000000000e+00,5.456595847682627851e-05
2.950000000000002065e-01,6.026769744582382016e-01,2.753727775314324333e+00,4.551130410290622426e-06,0.000000000000000000e+00,5.669130744662556832e-05
2.975000000000002087e-01,6.095583950194655154e-01,2.748437905066126508e+00,4.179420147609274699e-06,0.000000000000000000e+00,5.890805114043230143e-05
3.000000000000002109e-01,6.164264751986460178e-01,2.742937357409676924e+00,4.002863053198383536e-06,0.000000000000000000e+00,6.122528458998676001e-05
3.025000000000002132e-01,6.232806747831267646e-01,2.737192664617408511e+00,4.339400562687840344e-06,0.000000000000000000e+00,6.365015069000045116e-05
3.050000000000002154e-01,6.301203592967382638e-01,2.731171413129057424e+00,5.492769459154459442e-06,0.000000000000000000e+00,6.619086751935762127e-05
3.075000000000002176e-01,6.369448254654413999e-01,2.724852634639110427e+00,5.521946522128821436e-06,0.000000000000000000e+00,6.885143687879255057e-05
3.100000000000002198e-01,6.437533176666071499e-01,2.718215520405000696e+00,6.311081293260842342e-06,0.000000000000000000e+00,7.164084353256013884e-05
3.125000000000002220e-01,6.505450283651744714e-01,2.711239484791856835e+00,6.583949534812608769e-06,0.000000000000000000e+00,7.456544329895448532e-05
3.150000000000002243e-01,6.573190987060846258e-01,2.703904224723648220e+00,7.039456085429181375e-06,0.000000000000000000e+00,7.763575334571616983e-05
3.175000000000002265e-01,6.640746192530159187e-01,2.696189774665919803e+00,6.416079848505971771e-06,0.000000000000000000e+00,8.086413647970003586e-05
3.200000000000002287e-01,6.708106308620679359e-01,2.688076557032910152e+00,6.123394205737773898e-06,0.000000000000000000e+00,8.426825914141224073e-05
3.225000000000002309e-01,6.775261256789325559e-01,2.679545428567232879e+00,6.566894491545572434e-06,0.000000000000000000e+00,8.786699783896904719e-05
3.250000000000002331e-01,6.842200482495885971e-01,2.670577722233933748e+00,7.236100347629952530e-06,0.000000000000000000e+00,9.167760323156759928e-05
