Time (s),Altitude (m),Velocity (m/s),Angular Velocity (rad/s),Fin Cant Angle (deg),Angular Position (deg)
0.000000000000000000e+00,1.000000000000000021e-02,0.000000000000000000e+00,-3.895171304333528643e-14,0.000000000000000000e+00,0.000000000000000000e+00
2.500000000000000052e-03,9.986386640428010844e-03,-1.993609279922334276e-02,-1.063852639126138345e-13,0.000000000000000000e+00,8.371007870439770930e-15
5.000000000000000104e-03,9.928091518982053512e-03,-3.078551533993003492e-02,9.642797012607991357e-14,0.000000000000000000e+00,1.213559056847186427e-13
7.499999999999999722e-03,9.847831992153388558e-03,-3.254706525030895414e-02,-2.607022817126749676e-13,0.000000000000000000e+00,4.062588155379283863e-13
1.000000000000000021e-02,9.768327988558695232e-03,-2.522030651687715702e-02,-9.611196583267398727e-14,0.000000000000000000e+00,9.417674434396988981e-13
1.250000000000000069e-02,9.712300527941643627e-03,-8.804802076934480082e-03,7.877700980194810573e-13,0.000000000000000000e+00,1.768122236315431341e-12
1.500000000000000118e-02,9.702471722795522058e-03,1.669988495515727436e-02,1.020045116726082598e-12,0.000000000000000000e+00,2.874512818242300378e-12
1.750000000000000167e-02,9.761564777547981214e-03,5.129419094935053214e-02,1.854665724133934395e-12,0.000000000000000000e+00,4.268178051437899388e-12
2.000000000000000042e-02,9.912303986629828964e-03,9.497855034128693807e-02,1.915333098399561268e-12,0.000000000000000000e+00,5.923052022857614177e-12
2.249999999999999917e-02,1.017741472984084843e-02,1.477533964158271873e-01,1.786360387362449210e-12,0.000000000000000000e+00,7.838324669936805195e-12
2.499999999999999792e-02,1.058034154929021753e-02,2.068413803037187637e-01,1.767362558287938886e-12,0.000000000000000000e+00,1.001048610385951554e-11
2.749999999999999667e-02,1.113119560260741880e-02,2.664544548274343505e-01,1.777932300662297418e-12,0.000000000000000000e+00,1.243565013116014963e-11
2.999999999999999542e-02,1.183128961366008459e-02,3.264325789258529786e-01,1.761839613612660182e-12,0.000000000000000000e+00,1.511108887326493630e-11
3.249999999999999417e-02,1.268153611991578236e-02,3.867757422814923629e-01,1.929232995086877110e-12,0.000000000000000000e+00,1.803474620082927875e-11
3.499999999999999639e-02,1.368284788111007524e-02,4.474842594810453100e-01,2.320231002436469654e-12,0.000000000000000000e+00,2.120156157913196354e-11
3.749999999999999861e-02,1.483613836031304895e-02,5.085581280030327944e-01,1.978995111576387369e-12,0.000000000000000000e+00,2.459522149295112744e-11
4.000000000000000083e-02,1.614232092312074818e-02,5.699973536163022159e-01,-5.114980563188194482e-14,0.000000000000000000e+00,2.819650579732193429e-11
4.250000000000000305e-02,1.760230897603122166e-02,6.318019689944470718e-01,-6.007826581530149376e-13,0.000000000000000000e+00,3.198136161800790921e-11
4.500000000000000527e-02,1.921701601474242599e-02,6.939720157411716217e-01,-1.737213826995878587e-12,0.000000000000000000e+00,3.590452384866761153e-11
4.750000000000000749e-02,2.098735564272631929e-02,7.565075408643121557e-01,-3.472126438461658079e-12,0.000000000000000000e+00,3.985959171467601813e-11
5.000000000000000971e-02,2.291424158386236656e-02,8.194085961031967180e-01,-4.926924431103917911e-12,0.000000000000000000e+00,4.371549085540096438e-11
5.250000000000001193e-02,2.499858769100156766e-02,8.826751800275782767e-01,-7.475313428787257279e-12,0.000000000000000000e+00,4.739421434188078481e-11
5.500000000000001416e-02,2.724130774871854482e-02,9.463072713662572522e-01,-1.498046260207912337e-11,0.000000000000000000e+00,5.086176537516800312e-11
5.750000000000001638e-02,2.964331554035388658e-02,1.010304896348923842e+00,-1.343583438290064862e-11,0.000000000000000000e+00,5.411617992938037421e-11
6.000000000000001860e-02,3.220552491423208513e-02,1.074668080164229433e+00,-2.148501483774850953e-11,0.000000000000000000e+00,5.711054664838840752e-11
6.250000000000001388e-02,3.492884978104739135e-02,1.139396846939493502e+00,-2.118583779264409412e-11,0.000000000000000000e+00,5.983472958081520491e-11
6.500000000000001610e-02,3.781420411096573370e-02,1.204491219534649105e+00,-2.236894815630286228e-11,0.000000000000000000e+00,6.225144336504976230e-11
6.750000000000001832e-02,4.086250193119173729e-02,1.269951220121308122e+00,-1.838733096621700789e-11,0.000000000000000000e+00,6.432258523601978346e-11
7.000000000000002054e-02,4.407465732345035303e-02,1.335776869483856100e+00,-1.440057550177566864e-11,0.000000000000000000e+00,6.601457463808109251e-11
7.250000000000002276e-02,4.745158442062114013e-02,1.401968186942750050e+00,-4.703559315834009428e-12,0.000000000000000000e+00,6.730433263481493634e-11
7.500000000000002498e-02,5.099419740265411644e-02,1.468525191369267180e+00,-9.078542243142429873e-12,0.000000000000000000e+00,6.816241013857986433e-11
7.750000000000002720e-02,5.470341049839745617e-02,1.535447900363052565e+00,-1.011902339932140309e-11,0.000000000000000000e+00,6.816241013857986433e-11
8.000000000000002942e-02,5.858013797810211060e-02,1.602736330716403756e+00,-8.608017345944205011e-12,0.000000000000000000e+00,6.816241013857986433e-11
8.250000000000003164e-02,6.262529415306593294e-02,1.670390496754642351e+00,-1.571339818381341013e-11,0.000000000000000000e+00,6.816241013857986433e-11
8.500000000000003386e-02,6.683979337111632668e-02,1.738410413323394188e+00,-2.468823819808061301e-11,0.000000000000000000e+00,6.731571565544679710e-11
8.750000000000003608e-02,7.122455001578971434e-02,1.806796093001234560e+00,-2.533631825075378351e-11,0.000000000000000000e+00,6.604452302745540963e-11
9.000000000000003830e-02,7.578047850089665582e-02,1.875547547007809790e+00,-2.223893064412730240e-11,0.000000000000000000e+00,6.434850959822653304e-11
9.250000000000004052e-02,8.050849326818690366e-02,1.944664785571169396e+00,-3.404844436749577141e-11,0.000000000000000000e+00,6.223738719614792371e-11
9.500000000000004274e-02,8.540950878356207143e-02,2.014147818364923737e+00,-4.392527479478649693e-11,0.000000000000000000e+00,5.969439024668622622e-11
9.750000000000004496e-02,9.048443953787306537e-02,2.083996653617826933e+00,-4.447788953678166932e-11,0.000000000000000000e+00,5.669619227396351873e-11
1.000000000000000472e-01,9.573420004104259140e-02,2.154211298230704674e+00,-4.926057229737118498e-11,0.000000000000000000e+00,5.324685758340121120e-11
1.025000000000000494e-01,1.011597048339142602e-01,2.224791947803257841e+00,-4.839220377824399263e-11,0.000000000000000000e+00,4.926061702774326340e-11
1.050000000000000516e-01,1.067618691470940823e-01,2.295738817474674676e+00,-5.203561502510616985e-11,0.000000000000000000e+00,4.463886476603831416e-11
1.075000000000000538e-01,1.125416085481925343e-01,2.367051938181500059e+00,-4.725386075115366410e-11,0.000000000000000000e+00,3.925179934815772019e-11
1.100000000000000561e-01,1.184998386821769917e-01,2.438731340711838502e+00,-4.914088678916871532e-11,0.000000000000000000e+00,3.300320548337297308e-11
1.125000000000000583e-01,1.246374752708214323e-01,2.510777055371450572e+00,-6.799347021999395948e-11,0.000000000000000000e+00,2.575853411417817665e-11
1.150000000000000605e-01,1.309554341116351828e-01,2.583189112512524144e+00,-8.462307034294882591e-11,0.000000000000000000e+00,1.724366619931783449e-11
1.175000000000000627e-01,1.374546310764095391e-01,2.655967538487852053e+00,-8.660300665033980871e-11,0.000000000000000000e+00,7.188988615237467453e-12
1.200000000000000649e-01,1.441359821028560528e-01,2.729112360297639039e+00,-1.003315133132554485e-10,0.000000000000000000e+00,-4.594561666865275151e-12
1.225000000000000672e-01,1.510004031938562141e-01,2.802623600879661669e+00,-1.278487140092220015e-10,0.000000000000000000e+00,-1.848076445785621638e-11
1.250000000000000555e-01,1.580488104091578860e-01,2.876501280668720018e+00,-1.478437761409923009e-10,0.000000000000000000e+00,-3.494589977713383056e-11
1.275000000000000577e-01,1.652821198567465399e-01,2.950745415074002231e+00,-1.707894253727850310e-10,0.000000000000000000e+00,-5.455843714718173859e-11
1.300000000000000600e-01,1.727012476801687013e-01,3.025356013625831064e+00,-1.971377772292366213e-10,0.000000000000000000e+00,-7.794445407515154639e-11
1.325000000000000622e-01,1.803071100430153062e-01,3.100333078393664898e+00,-2.250550841474471432e-10,0.000000000000000000e+00,-1.059125010398435084e-10
1.350000000000000644e-01,1.881006231092759440e-01,3.175676602072355248e+00,-2.591301818514290848e-10,0.000000000000000000e+00,-1.391644346306642138e-10
1.375000000000000666e-01,1.960827030187040354e-01,3.251386565679753371e+00,-2.959558735257141929e-10,0.000000000000000000e+00,-1.788933636940424533e-10
1.400000000000000688e-01,2.042542658561870839e-01,3.327462935802382393e+00,-3.465090113013480543e-10,0.000000000000000000e+00,-2.265487843486615959e-10
1.425000000000000711e-01,2.126162276111910332e-01,3.403905643196424524e+00,-4.142760054780404236e-10,0.000000000000000000e+00,-2.829499994356746800e-10
1.450000000000000733e-01,2.211695040749615260e-01,3.480714599629725292e+00,-4.486897262299782216e-10,0.000000000000000000e+00,-3.485046098661443381e-10
1.475000000000000755e-01,2.299150108206193532e-01,3.557889704966532118e+00,-5.469199593012257742e-10,0.000000000000000000e+00,-4.257560820327439819e-10
1.500000000000000777e-01,2.388536631545286892e-01,3.635430827476907378e+00,-5.741793899514817711e-10,0.000000000000000000e+00,-5.155066655329220110e-10
1.525000000000000799e-01,2.479863760214462420e-01,3.713337797170111809e+00,-5.988008983038401160e-10,0.000000000000000000e+00,-6.192270739981527970e-10
1.550000000000000822e-01,2.573140639499972848e-01,3.791610537727602370e+00,-6.444815717244779090e-10,0.000000000000000000e+00,-7.384142936735506863e-10
1.575000000000000844e-01,2.668376413604283126e-01,3.870249041258915668e+00,-7.386062777374273145e-10,0.000000000000000000e+00,-8.733325823337099153e-10
1.600000000000000866e-01,2.765580226572899036e-01,3.949253305638470657e+00,-7.791799353601145393e-10,0.000000000000000000e+00,-1.023872573573029790e-09
1.625000000000000888e-01,2.864761222420960096e-01,4.028623331619321846e+00,-8.252431094182481504e-10,0.000000000000000000e+00,-1.189611448782088876e-09
1.650000000000000910e-01,2.965928545190366639e-01,4.108359119185687192e+00,-8.748705422071739132e-10,0.000000000000000000e+00,-1.371305292006654968e-09
1.675000000000000933e-01,3.069091338878138786e-01,4.188460642279208557e+00,-9.961355777588449056e-10,0.000000000000000000e+00,-1.568442959588750994e-09
1.700000000000000955e-01,3.174258746638333184e-01,4.268927876759740059e+00,-1.133298108772120549e-09,0.000000000000000000e+00,-1.780434355306238688e-09
1.725000000000000977e-01,3.281439911173447133e-01,4.349760806816769687e+00,-1.378858391431809312e-09,0.000000000000000000e+00,-2.005415091111587367e-09
1.750000000000000999e-01,3.390643974756464285e-01,4.430959410165312917e+00,-1.429931560569306813e-09,0.000000000000000000e+00,-2.240359553912199270e-09
1.775000000000001021e-01,3.501880079063513507e-01,4.512523657180185666e+00,-1.576255987987678658e-09,0.000000000000000000e+00,-2.484244663751898290e-09
1.800000000000001044e-01,3.615157364986297250e-01,4.594453510267188179e+00,-1.493373710593160637e-09,0.000000000000000000e+00,-2.735620972992055056e-09
1.825000000000001066e-01,3.730484972430125334e-01,4.676748923465099850e+00,-1.424467558753700859e-09,0.000000000000000000e+00,-2.995269109535316922e-09
1.850000000000001088e-01,3.847872040103298419e-01,4.759409842270128088e+00,-1.531924257576348783e-09,0.000000000000000000e+00,-3.264276758380964622e-09
1.875000000000001110e-01,3.967327705303362873e-01,4.842436203682494167e+00,-1.849272650893284732e-09,0.000000000000000000e+00,-3.540952005352192822e-09
1.900000000000001132e-01,4.088861103705841993e-01,4.925827936483510250e+00,-1.871140266985578047e-09,0.000000000000000000e+00,-3.822172352943509565e-09
1.925000000000001155e-01,4.212481369161254485e-01,5.009584961761118116e+00,-1.755593607831459053e-09,0.000000000000000000e+00,-4.107923832914250270e-09
1.950000000000001177e-01,4.338197633506792883e-01,5.093707193706185521e+00,-1.947572238022706820e-09,0.000000000000000000e+00,-4.398387783298384950e-09
1.975000000000001199e-01,4.466019026399538627e-01,5.178194540712398819e+00,-1.955818869597771542e-09,0.000000000000000000e+00,-4.692041619333598112e-09
2.000000000000001221e-01,4.595954675179067528e-01,5.263046906823197979e+00,-1.862725625736892700e-09,0.000000000000000000e+00,-4.988750037676658870e-09
2.025000000000001243e-01,4.728013704891400049e-01,5.348264407229994077e+00,-1.951668768779155700e-09,0.000000000000000000e+00,-5.289019455149319081e-09
2.050000000000001266e-01,4.862205245783179364e-01,5.433847201035165497e+00,-2.111134188622729577e-09,0.000000000000000000e+00,-5.591623538187381570e-09
2.075000000000001288e-01,4.998538429987013920e-01,5.519795252567511135e+00,-2.037056830874825944e-09,0.000000000000000000e+00,-5.895532969954843388e-09
2.100000000000001310e-01,5.137022388743810453e-01,5.606108526225718869e+00,-2.118885547141513755e-09,0.000000000000000000e+00,-6.201658788710614490e-09
2.125000000000001332e-01,5.277666853974105621e-01,5.692682070609150102e+00,-2.299036299574198867e-09,0.000000000000000000e+00,-6.508836069769569094e-09
2.150000000000001354e-01,5.420474981492804378e-01,5.779090393477600784e+00,-2.313999316961993439e-09,0.000000000000000000e+00,-6.816058092121494214e-09
2.175000000000001377e-01,5.565442110938082498e-01,5.865286250277666369e+00,-2.452550298730981139e-09,0.000000000000000000e+00,-7.122947784952847038e-09
2.200000000000001399e-01,5.712562930207796263e-01,5.951269561878633318e+00,-2.067685925217104579e-09,0.000000000000000000e+00,-7.428166925882041976e-09
2.225000000000001421e-01,5.861832159490787397e-01,6.037037301960248570e+00,-2.293537897802466567e-09,0.000000000000000000e+00,-7.737846546968177344e-09
2.250000000000001443e-01,6.013244299628164313e-01,6.122588065754110964e+00,-2.378478590007303142e-09,0.000000000000000000e+00,-8.051248007169455682e-09
2.275000000000001465e-01,6.166794001065935005e-01,6.207926078871853548e+00,-2.531739627758499765e-09,0.000000000000000000e+00,-8.367713716110886556e-09
2.300000000000001488e-01,6.322475944720330476e-01,6.293051286228635632e+00,-2.358095734639265790e-09,0.000000000000000000e+00,-8.686449450394278281e-09
2.325000000000001510e-01,6.480284810155919617e-01,6.377963637297432875e+00,-2.323103053964413748e-09,0.000000000000000000e+00,-9.007606360870605524e-09
2.350000000000001532e-01,6.640215275701247810e-01,6.462663086412638869e+00,-2.750148977526927319e-09,0.000000000000000000e+00,-9.330956799550371521e-09
2.375000000000001554e-01,6.802262018572106106e-01,6.547149593085381802e+00,-2.986484027575875842e-09,0.000000000000000000e+00,-9.654876139609776542e-09
2.400000000000001577e-01,6.966419715002761803e-01,6.631423122329912268e+00,-3.138854467031395224e-09,0.000000000000000000e+00,-9.977931182558611888e-09
2.425000000000001599e-01,7.132683040385399131e-01,6.715483644999919122e+00,-3.365352038578659022e-09,0.000000000000000000e+00,-1.029943895646332650e-08
2.450000000000001621e-01,7.301046669418016499e-01,6.799331138132740371e+00,-3.693018334321816804e-09,0.000000000000000000e+00,-1.061784501730485804e-08
2.475000000000001643e-01,7.471505276260971273e-01,6.882965585300224731e+00,-3.690424469842780696e-09,0.000000000000000000e+00,-1.093136136318229000e-08
2.500000000000001665e-01,7.644053534702325292e-01,6.966386976964266786e+00,-3.747325052466425730e-09,0.000000000000000000e+00,-1.123965045718184543e-08
2.525000000000001688e-01,7.818686118346125369e-01,7.049595292510896449e+00,-3.872580909648775391e-09,0.000000000000000000e+00,-1.154228125842234262e-08
2.550000000000001710e-01,7.995397699920721024e-01,7.132590457089222902e+00,-3.942491761450926992e-09,0.000000000000000000e+00,-1.183922715560152296e-08
2.575000000000001732e-01,8.174182950179552654e-01,7.215372386738038379e+00,-3.995366774676137525e-09,0.000000000000000000e+00,-1.213020197572154588e-08
2.600000000000001754e-01,8.355036537770634819e-01,7.297940996361061750e+00,-3.964260504534667265e-09,0.000000000000000000e+00,-1.241504937562594024e-08
2.625000000000001776e-01,8.537953129208019076e-01,7.380296199699217574e+00,-4.060404991323749395e-09,0.000000000000000000e+00,-1.269433318872918742e-08
2.650000000000001799e-01,8.722927388842570684e-01,7.462437909300304817e+00,-4.670968548824227284e-09,0.000000000000000000e+00,-1.296717488240111282e-08
2.675000000000001821e-01,8.909953978831954835e-01,7.544366036486922056e+00,-4.120530839561753566e-09,0.000000000000000000e+00,-1.323172376475286160e-08
2.700000000000001843e-01,9.099027559109830188e-01,7.626080491321904020e+00,-3.889649338707349617e-09,0.000000000000000000e+00,-1.349005802872433546e-08
2.725000000000001865e-01,9.290142787354137566e-01,7.707581182571064282e+00,-3.801724134988065328e-09,0.000000000000000000e+00,-1.374292993556320788e-08
2.750000000000001887e-01,9.483294318954470503e-01,7.788868017664390742e+00,-3.753069848231430465e-09,0.000000000000000000e+00,-1.399000603234639671e-08
2.775000000000001910e-01,9.678476806978449920e-01,7.869940902654275483e+00,-3.714805443899658905e-09,0.000000000000000000e+00,-1.423151727662831253e-08
2.800000000000001932e-01,9.875684902137036314e-01,7.950799742172701912e+00,-3.976052104567259951e-09,0.000000000000000000e+00,-1.446805076091351135e-08
2.825000000000001954e-01,1.007491325274878058e+00,8.031444439385728273e+00,-4.492312150949365976e-09,0.000000000000000000e+00,-1.469943141909629825e-08
2.850000000000001976e-01,1.027615650470290909e+00,8.111874895945675235e+00,-3.791392979054544671e-09,0.000000000000000000e+00,-1.492412560729375985e-08
2.875000000000001998e-01,1.047940930142120086e+00,8.192091011941208478e+00,-3.832903138365958670e-09,0.000000000000000000e+00,-1.514363533191967332e-08
2.900000000000002021e-01,1.068466628381860017e+00,8.272092685843780657e+00,-3.305130904060485303e-09,0.000000000000000000e+00,-1.535783556897277433e-08
2.925000000000002043e-01,1.089192209026248470e+00,8.351879814453470274e+00,-2.547986629731432744e-09,0.000000000000000000e+00,-1.556826533514262708e-08
2.950000000000002065e-01,1.110117135653057030e+00,8.431452292843420793e+00,-2.718097180721238838e-09,0.000000000000000000e+00,-1.577765690123968124e-08
2.975000000000002087e-01,1.131240871576742135e+00,8.510810014300751902e+00,-2.533636101687075751e-09,0.000000000000000000e+00,-1.598558952785808796e-08
3.000000000000002109e-01,1.152562879843942900e+00,8.589952870262893114e+00,-2.361694294474804566e-09,0.000000000000000000e+00,-1.619288410751773431e-08
3.025000000000002132e-01,1.174082623192949537e+00,8.668879849156306605e+00,-2.604298802137418803e-09,0.000000000000000000e+00,-1.639979290179648386e-08
3.050000000000002154e-01,1.195799560835133946e+00,8.747589627681387370e+00,-3.505601925862116757e-09,0.000000000000000000e+00,-1.660730957865338718e-08
3.075000000000002176e-01,1.217713149431518760e+00,8.826081513362014519e+00,-4.890756002939324000e-09,0.000000000000000000e+00,-1.681210264339069362e-08
3.100000000000002198e-01,1.239822843670985275e+00,8.904356686066844162e+00,-6.376931510523086817e-09,0.000000000000000000e+00,-1.701016260480075146e-08
3.125000000000002220e-01,1.262128115383713611e+00,8.982433076954329465e+00,-8.240236586463340467e-09,0.000000000000000000e+00,-1.719669272426360425e-08
3.150000000000002243e-01,1.284628453729789177e+00,9.060292144834246386e+00,-7.151992277304740804e-09,0.000000000000000000e+00,-1.736593420340709771e-08
3.175000000000002265e-01,1.307323314625457034e+00,9.137930126937538589e+00,-8.947140288894806496e-09,0.000000000000000000e+00,-1.752086987789723946e-08
3.200000000000002287e-01,1.330212144463719381e+00,9.215345356973662305e+00,-9.104521423676305412e-09,0.000000000000000000e+00,-1.765786995802243013e-08
3.225000000000002309e-01,1.353294385356283547e+00,9.292535957287855197e+00,-1.023837613355924143e-08,0.000000000000000000e+00,-1.777483529029823761e-08
3.250000000000002331e-01,1.376569474596115228e+00,9.369499821187851296e+00,-1.172442789094875850e-08,0.000000000000000000e+00,-1.786718321163119102e-08
