Time (s),Altitude (m),Velocity (m/s),Angular Velocity (rad/s),Fin Cant Angle (deg),Angular Position (deg)
0.000000000000000000e+00,1.000000000000000021e-02,0.000000000000000000e+00,0.000000000000000000e+00,0.000000000000000000e+00,0.000000000000000000e+00
2.500000000000000052e-03,9.986386637777113981e-03,-1.993609492453132098e-02,0.000000000000000000e+00,0.000000000000000000e+00,0.000000000000000000e+00
5.000000000000000104e-03,9.928091511456507354e-03,-3.078551197943373008e-02,0.000000000000000000e+00,0.000000000000000000e+00,0.000000000000000000e+00
7.499999999999999722e-03,9.847831998670371692e-03,-3.254704808835112012e-02,0.000000000000000000e+00,0.000000000000000000e+00,0.000000000000000000e+00
1.000000000000000021e-02,9.768328047894243860e-03,-2.522026958109136602e-02,0.000000000000000000e+00,0.000000000000000000e+00,0.000000000000000000e+00
1.250000000000000069e-02,9.712300691959326743e-03,-8.804742615397556649e-03,0.000000000000000000e+00,0.000000000000000000e+00,0.000000000000000000e+00
1.500000000000000118e-02,9.702472048462367979e-03,1.669996682627519075e-02,0.000000000000000000e+00,0.000000000000000000e+00,0.000000000000000000e+00
1.750000000000000167e-02,9.761565319986559644e-03,5.129429263472831679e-02,0.000000000000000000e+00,0.000000000000000000e+00,0.000000000000000000e+00
2.000000000000000042e-02,9.912304793397412259e-03,9.497866799147100525e-02,0.000000000000000000e+00,0.000000000000000000e+00,0.000000000000000000e+00
2.249999999999999917e-02,1.017741583756719484e-02,1.477535245638593731e-01,0.000000000000000000e+00,0.000000000000000000e+00,0.000000000000000000e+00
2.499999999999999792e-02,1.058034298040667551e-02,2.068415145663786703e-01,0.000000000000000000e+00,0.000000000000000000e+00,0.000000000000000000e+00
2.749999999999999667e-02,1.113119737283441504e-02,2.664546057237461296e-01,0.000000000000000000e+00,0.000000000000000000e+00,0.000000000000000000e+00
2.999999999999999542e-02,1.183129178658479282e-02,3.264328573807131484e-01,0.000000000000000000e+00,0.000000000000000000e+00,0.000000000000000000e+00
3.249999999999999417e-02,1.268153914136483512e-02,3.867763023936583444e-01,0.000000000000000000e+00,0.000000000000000000e+00,0.000000000000000000e+00
3.499999999999999639e-02,1.368285243883415880e-02,4.474849732163960203e-01,0.000000000000000000e+00,0.000000000000000000e+00,0.000000000000000000e+00
3.749999999999999861e-02,1.483614476164014928e-02,5.085589019933370869e-01,0.000000000000000000e+00,0.000000000000000000e+00,0.000000000000000000e+00
4.000000000000000083e-02,1.614232927266823908e-02,5.699981206151559787e-01,0.000000000000000000e+00,0.000000000000000000e+00,0.000000000000000000e+00
4.250000000000000305e-02,1.760231921442125327e-02,6.318026607525416560e-01,-7.912543870009665793e-16,0.000000000000000000e+00,0.000000000000000000e+00
4.500000000000000527e-02,1.921702790847719389e-02,6.939725538619305745e-01,-3.355388916084300434e-15,0.000000000000000000e+00,0.000000000000000000e+00
4.750000000000000749e-02,2.098736875505742561e-02,7.565078313169472102e-01,-1.867180537310189814e-15,0.000000000000000000e+00,-1.785136507807887176e-15
5.000000000000000971e-02,2.291425523255504609e-02,8.194085241665657326e-01,2.946916100002848657e-15,0.000000000000000000e+00,-7.929540373452867649e-15
5.250000000000001193e-02,2.499860089744339320e-02,8.826746694730316367e-01,-9.303344244944246712e-15,0.000000000000000000e+00,-2.066998705476062034e-14
5.500000000000001416e-02,2.724131940606339813e-02,9.463063060544961713e-01,-6.483634210499886991e-14,0.000000000000000000e+00,-4.113148953691213080e-14
5.750000000000001638e-02,2.964332450540753394e-02,1.010303466720543275e+00,-4.005380736066115972e-14,0.000000000000000000e+00,-7.116315844910870782e-14
6.000000000000001860e-02,3.220553002427407885e-02,1.074666184400034030e+00,-1.131855960842076635e-13,0.000000000000000000e+00,-1.161101961361052008e-13
6.250000000000001388e-02,3.492884987383088058e-02,1.139394491775195473e+00,8.745195498202106847e-14,0.000000000000000000e+00,-1.748602667192453962e-13
6.500000000000001610e-02,3.781419804650573702e-02,1.204488421047343216e+00,-2.046371760281173786e-13,0.000000000000000000e+00,-2.672034313010558594e-13
6.750000000000001832e-02,4.086248861466761778e-02,1.269948004000829744e+00,-2.154655717143298678e-13,0.000000000000000000e+00,-3.933021840102280912e-13
7.000000000000002054e-02,4.407463573118898525e-02,1.335773272803029599e+00,-8.475325021523149709e-14,0.000000000000000000e+00,-5.682670504068974078e-13
7.250000000000002276e-02,4.745155362861740167e-02,1.401964258978095845e+00,1.074125996022676964e-13,0.000000000000000000e+00,-8.124479711152798206e-13
7.500000000000002498e-02,5.099415661811971395e-02,1.468520993691324161e+00,-1.858301283998456270e-13,0.000000000000000000e+00,-1.152176163742208034e-12
7.750000000000002720e-02,5.470335908829662697e-02,1.535443507411887065e+00,6.431115557024177061e-13,0.000000000000000000e+00,-1.617739570470604624e-12
8.000000000000002942e-02,5.858007550411641756e-02,1.602731830617369235e+00,1.170454116541649585e-12,0.000000000000000000e+00,-2.269664945576977492e-12
8.250000000000003164e-02,6.262522040624303454e-02,1.670385993006746173e+00,2.959489876942984122e-12,0.000000000000000000e+00,-3.174264967256208837e-12
8.500000000000003386e-02,6.683970840924344237e-02,1.738406023627659724e+00,3.388695360403331850e-12,0.000000000000000000e+00,-4.452460924327458058e-12
8.750000000000003608e-02,7.122445419990183768e-02,1.806791950767073329e+00,-2.022790913351737768e-12,0.000000000000000000e+00,-6.230678219931059469e-12
9.000000000000003830e-02,7.578037253525049532e-02,1.875543801822335155e+00,-5.911611331430147509e-12,0.000000000000000000e+00,-8.538819702586920921e-12
9.250000000000004052e-02,8.050837824029360990e-02,1.944661603224339341e+00,-7.792679888454426888e-12,0.000000000000000000e+00,-1.143464263652662949e-11
9.500000000000004274e-02,8.540938620542082305e-02,2.014145380052164924e+00,-6.507333911810984134e-12,0.000000000000000000e+00,-1.505520244599265780e-11
9.750000000000004496e-02,9.048431138299034560e-02,2.083995156020188588e+00,-9.999930472671522577e-12,0.000000000000000000e+00,-1.959141355374071798e-11
1.000000000000000472e-01,9.573406878315157686e-02,2.154210952683163871e+00,-7.644391570207876144e-12,0.000000000000000000e+00,-2.525803983672885278e-11
1.025000000000000494e-01,1.011595734689431092e-01,2.224792778556532014e+00,-7.018395928668894310e-12,0.000000000000000000e+00,-3.236697961647559124e-11
1.050000000000000516e-01,1.067617405104292067e-01,2.295740639347481515e+00,-3.512682782438478930e-12,0.000000000000000000e+00,-4.127975234652757275e-11
1.075000000000000538e-01,1.125414850044145210e-01,2.367054551129917694e+00,-1.502532744610906629e-11,0.000000000000000000e+00,-5.240536653814315969e-11
1.100000000000000561e-01,1.184997220867950035e-01,2.438734527952025832e+00,-3.400582719308220040e-11,0.000000000000000000e+00,-6.600147459633982566e-11
1.125000000000000583e-01,1.246373669273645041e-01,2.510780581599070249e+00,-3.131010165864327342e-11,0.000000000000000000e+00,-8.230924163945983655e-11
1.150000000000000605e-01,1.309553347240152987e-01,2.583192721329945929e+00,-3.566305731782198128e-11,0.000000000000000000e+00,-1.019212974696651912e-10
1.175000000000000627e-01,1.374545406962639493e-01,2.655970953586595851e+00,-4.987256162302931916e-11,0.000000000000000000e+00,-1.254107984073471008e-10
1.200000000000000649e-01,1.441359000780354505e-01,2.729115281673435423e+00,-9.037789596796686467e-11,0.000000000000000000e+00,-1.533515238883271728e-10
1.225000000000000672e-01,1.510003281096265471e-01,2.802625705403702039e+00,-1.387911062667764993e-10,0.000000000000000000e+00,-1.857798053175433032e-10
1.250000000000000555e-01,1.580487400287671762e-01,2.876502220710464464e+00,-1.786865359676423449e-10,0.000000000000000000e+00,-2.226352427653924175e-10
1.275000000000000577e-01,1.652820510606866911e-01,2.950744819219505821e+00,-1.749890643962256759e-10,0.000000000000000000e+00,-2.642109848809902210e-10
1.300000000000000600e-01,1.727011764070919830e-01,3.025353487781924589e+00,-2.086447224687373923e-10,0.000000000000000000e+00,-3.115370051507842601e-10
1.325000000000000622e-01,1.803070312339515036e-01,3.100328207961514870e+00,-1.901539658261897974e-10,0.000000000000000000e+00,-3.649434729483582519e-10
1.350000000000000644e-01,1.881005306579701664e-01,3.175668955473205823e+00,-2.184665061755776755e-10,0.000000000000000000e+00,-4.256255104844213822e-10
1.375000000000000666e-01,1.960825897316346988e-01,3.251375699571581457e+00,-2.630420115084706703e-10,0.000000000000000000e+00,-4.944848192167512585e-10
1.400000000000000688e-01,2.042541234266987416e-01,3.327448402384248993e+00,-2.322361106104886643e-10,0.000000000000000000e+00,-5.720639231949787839e-10
1.425000000000000711e-01,2.126160466159699725e-01,3.403887018186495528e+00,-2.232789384719809060e-10,0.000000000000000000e+00,-6.604347617609072277e-10
1.450000000000000733e-01,2.211692740532460455e-01,3.480691492611783566e+00,-2.273266312027005110e-10,0.000000000000000000e+00,-7.615831367533363602e-10
1.475000000000000755e-01,2.299147203509600002e-01,3.557861753961917284e+00,-2.462466845923912131e-10,0.000000000000000000e+00,-8.768235986973076718e-10
1.500000000000000777e-01,2.388532999259009304e-01,3.635397716074916463e+00,-2.598461855008004763e-10,0.000000000000000000e+00,-1.008457177182401667e-09
1.525000000000000799e-01,2.479859269847712877e-01,3.713299360720493603e+00,-2.638968468556635846e-10,0.000000000000000000e+00,-1.158849415334826752e-09
1.550000000000000822e-01,2.573135157602891576e-01,3.791566689568039106e+00,-2.844506131536708700e-10,0.000000000000000000e+00,-1.329856555506739999e-09
1.575000000000000844e-01,2.668369804316502170e-01,3.870199646125094262e+00,-1.507920683768919296e-10,0.000000000000000000e+00,-1.523647068855313123e-09
1.600000000000000866e-01,2.765572350345251174e-01,3.949198169796649616e+00,-2.641736680417744837e-10,0.000000000000000000e+00,-1.744037477424009698e-09
1.625000000000000888e-01,2.864751934507170361e-01,4.028562195734597395e+00,-4.157871291011090359e-10,0.000000000000000000e+00,-1.993562911526054166e-09
1.650000000000000910e-01,2.965917693974411962e-01,4.108291654683013938e+00,-5.251570166626242567e-10,0.000000000000000000e+00,-2.272541313909398611e-09
1.675000000000000933e-01,3.069078764162165851e-01,4.188386472816305606e+00,-6.388221452015233386e-10,0.000000000000000000e+00,-2.583125325667822728e-09
1.700000000000000955e-01,3.174244278613480574e-01,4.268846571570763082e+00,-5.239924782181028806e-10,0.000000000000000000e+00,-2.927660838793804217e-09
1.725000000000000977e-01,3.281423368879831104e-01,4.349671867475546350e+00,-6.632283774825361015e-10,0.000000000000000000e+00,-3.310188379917621437e-09
1.750000000000000999e-01,3.390625164397485514e-01,4.430862271976266697e+00,-5.116554137766377337e-10,0.000000000000000000e+00,-3.733074802934412566e-09
1.775000000000001021e-01,3.501858792359355821e-01,4.512417691249388518e+00,-7.855537734595245935e-10,0.000000000000000000e+00,-4.201091942641541289e-09
1.800000000000001044e-01,3.615133377582223084e-01,4.594338026009595843e+00,-9.611434040222615783e-10,0.000000000000000000e+00,-4.715995586243443052e-09
1.825000000000001066e-01,3.730458042369052540e-01,4.676623171314140848e+00,-1.065655210135333140e-09,0.000000000000000000e+00,-5.280417104686118539e-09
1.850000000000001088e-01,3.847841906366457621e-01,4.759273016361396991e+00,-1.216835977229484465e-09,0.000000000000000000e+00,-5.896676486393325675e-09
1.875000000000001110e-01,3.967294086417028631e-01,4.842287444278993824e+00,-1.277730654142536733e-09,0.000000000000000000e+00,-6.568844477691425283e-09
1.900000000000001132e-01,4.088823696406380104e-01,4.925666331907335049e+00,-1.985057570441218448e-09,0.000000000000000000e+00,-7.299480143559013974e-09
1.925000000000001155e-01,4.212439847104673118e-01,5.009409549577488185e+00,-2.323428988135959199e-09,0.000000000000000000e+00,-8.088048290549443178e-09
1.950000000000001177e-01,4.338151646002651463e-01,5.093516960882559452e+00,-1.917891426655953466e-09,0.000000000000000000e+00,-8.935509611714075818e-09
1.975000000000001199e-01,4.465968197141799712e-01,5.177988422434100180e+00,-1.963099815341940828e-09,0.000000000000000000e+00,-9.850351284822909981e-09
2.000000000000001221e-01,4.595898600938463918e-01,5.262823783619455575e+00,-2.583196496676920645e-09,0.000000000000000000e+00,-1.083610785294495557e-08
2.025000000000001243e-01,4.727951954224700604e-01,5.348023338807319504e+00,-3.082979553383347685e-09,0.000000000000000000e+00,-1.189193589593652417e-08
2.050000000000001266e-01,4.862137365926087473e-01,5.433587445705275520e+00,-2.956041584314263951e-09,0.000000000000000000e+00,-1.301828518125549614e-08
2.075000000000001288e-01,4.998463949492487068e-01,5.519516044956179535e+00,-2.985728774286461399e-09,0.000000000000000000e+00,-1.422008380475258559e-08
2.100000000000001310e-01,5.136940816892121564e-01,5.605809077519493755e+00,-3.678087010366569825e-09,0.000000000000000000e+00,-1.549919119793541353e-08
2.125000000000001332e-01,5.277577680179462716e-01,5.692361569727069970e+00,-4.726571663434838229e-09,0.000000000000000000e+00,-1.685593819936864515e-08
2.150000000000001354e-01,5.420377674786205358e-01,5.778748009797128660e+00,-5.645425812897101829e-09,0.000000000000000000e+00,-1.828716039078818756e-08
2.175000000000001377e-01,5.565336119434122208e-01,5.864921127289073333e+00,-5.803673361121073080e-09,0.000000000000000000e+00,-1.978805167342628666e-08
2.200000000000001399e-01,5.712447680447121368e-01,5.950880815143753999e+00,-5.878919861479034503e-09,0.000000000000000000e+00,-2.135952564609351302e-08
2.225000000000001421e-01,5.861707021479016788e-01,6.036626967365844365e+00,-5.771966602414864903e-09,0.000000000000000000e+00,-2.300405639790466896e-08
2.250000000000001443e-01,6.013108803539578551e-01,6.122159478935016885e+00,-7.212704114330341408e-09,0.000000000000000000e+00,-2.472674383306557691e-08
2.275000000000001465e-01,6.166647685018397107e-01,6.207478245719568299e+00,-5.890241168250433348e-09,0.000000000000000000e+00,-2.651877833997063566e-08
2.300000000000001488e-01,6.322318321706675848e-01,6.292583164400920914e+00,-6.549144463602334349e-09,0.000000000000000000e+00,-2.839241076762228039e-08
2.325000000000001510e-01,6.480115366817139622e-01,6.377474132403614604e+00,-8.071043383848725019e-09,0.000000000000000000e+00,-3.034742451600959605e-08
2.350000000000001532e-01,6.640033471002226850e-01,6.462151047830468009e+00,-9.095683960067282899e-09,0.000000000000000000e+00,-3.237582453218824809e-08
2.375000000000001554e-01,6.802067282370678480e-01,6.546613809401978124e+00,-8.229830896665741430e-09,0.000000000000000000e+00,-3.447273545591910884e-08
2.400000000000001577e-01,6.966211446502686977e-01,6.630862316405969459e+00,-7.180994163866196230e-09,0.000000000000000000e+00,-3.664521770407622677e-08
2.425000000000001599e-01,7.132460606463805197e-01,6.714896468648333894e+00,-6.999650130555119542e-09,0.000000000000000000e+00,-3.890293224250183283e-08
2.450000000000001621e-01,7.300809402817625138e-01,6.798716166413668383e+00,-7.541999320671933785e-09,0.000000000000000000e+00,-4.125020566101796535e-08
2.475000000000001643e-01,7.471252473637554070e-01,6.882321310425862038e+00,-8.208900444452837263e-09,0.000000000000000000e+00,-4.368359815733469592e-08
2.500000000000001665e-01,7.643784454517559279e-01,6.965711801818128990e+00,-7.919859831361498193e-09,0.000000000000000000e+00,-4.620445275668435644e-08
2.525000000000001688e-01,7.818399978174901399e-01,7.048886793437990406e+00,-6.307286233638919302e-09,0.000000000000000000e+00,-4.881397175963013560e-08
2.550000000000001710e-01,7.995093648361994987e-01,7.131845364237298313e+00,-5.997473766606562688e-09,0.000000000000000000e+00,-5.152694068154492031e-08
2.575000000000001732e-01,8.173860053354998767e-01,7.214587300395605141e+00,-5.471591083947719449e-09,0.000000000000000000e+00,-5.434587031261432475e-08
2.600000000000001754e-01,8.354693776060646560e-01,7.297112383842517147e+00,-6.773815271654640300e-09,0.000000000000000000e+00,-5.727838529430107350e-08
2.625000000000001776e-01,8.537589393909522650e-01,7.379420392160843001e+00,-8.082627199163176707e-09,0.000000000000000000e+00,-6.032345492171560006e-08
2.650000000000001799e-01,8.722541478746804744e-01,7.461511098485003934e+00,-6.763501543047511527e-09,0.000000000000000000e+00,-6.348122892314673665e-08
2.675000000000001821e-01,8.909544596720485599e-01,7.543384271399109942e+00,-8.658217279742924457e-09,0.000000000000000000e+00,-6.675799988919507527e-08
2.700000000000001843e-01,9.098593308167013394e-01,7.625039674833369752e+00,-8.831349287721591027e-09,0.000000000000000000e+00,-7.015130198547690638e-08
2.725000000000001865e-01,9.289682167494357490e-01,7.706477067958401150e+00,-7.937633248189545886e-09,0.000000000000000000e+00,-7.366296102775664109e-08
2.750000000000001887e-01,9.482805723062422976e-01,7.787696205076151124e+00,-7.389113796670922193e-09,0.000000000000000000e+00,-7.730429666372264644e-08
2.775000000000001910e-01,9.677958517060724075e-01,7.868696835510979426e+00,-8.494875945614907418e-09,0.000000000000000000e+00,-8.108182037568658103e-08
2.800000000000001932e-01,9.875135085383275335e-01,7.949478703503458199e+00,-1.246250629885909984e-08,0.000000000000000000e+00,-8.499408568341457456e-08
2.825000000000001954e-01,1.007432995750094484e+00,8.030041548095105952e+00,-1.467491072423629306e-08,0.000000000000000000e+00,-8.903112743916190909e-08
2.850000000000001976e-01,1.027553765633077321e+00,8.110385103008228569e+00,-1.945545178218277074e-08,0.000000000000000000e+00,-9.318633773014092120e-08
2.875000000000001998e-01,1.047875269810232268e+00,8.190509096531343403e+00,-2.275269524551130602e-08,0.000000000000000000e+00,-9.744495517327965317e-08
2.900000000000002021e-01,1.068396959222121190e+00,8.270413251403306631e+00,-2.272653842885324831e-08,0.000000000000000000e+00,-1.017969845019952969e-07
2.925000000000002043e-01,1.089118284112964963e+00,8.350097284690720656e+00,-2.258312819121889112e-08,0.000000000000000000e+00,-1.062423215755073964e-07
2.950000000000002065e-01,1.110038694016393768e+00,8.429560907660848201e+00,-2.401644073695212134e-08,0.000000000000000000e+00,-1.107871758213428061e-07
2.975000000000002087e-01,1.131157637740880517e+00,8.508803825657377473e+00,-2.680407314932331894e-08,0.000000000000000000e+00,-1.154305190495546554e-07
3.000000000000002109e-01,1.152474563354860537e+00,8.587825737976574558e+00,-3.103208622850612677e-08,0.000000000000000000e+00,-1.201671703249190340e-07
3.025000000000002132e-01,1.173988917936849230e+00,8.666621605301399356e+00,-2.713510962484560020e-08,0.000000000000000000e+00,-1.249869319065719194e-07
3.050000000000002154e-01,1.195700130915367643e+00,8.745185519452576273e+00,-2.983085904130643745e-08,0.000000000000000000e+00,-1.299134881596580906e-07
3.075000000000002176e-01,1.217607621475951696e+00,8.823515785247337817e+00,-2.623745285048131147e-08,0.000000000000000000e+00,-1.349427277912124256e-07
3.100000000000002198e-01,1.239710804501250374e+00,8.901610589181036204e+00,-2.901058315542648959e-08,0.000000000000000000e+00,-1.401034013672440443e-07
3.125000000000002220e-01,1.262009090270949763e+00,8.979467991584147768e+00,-2.949023941401456204e-08,0.000000000000000000e+00,-1.453939893592216946e-07
3.150000000000002243e-01,1.284501884141786121e+00,9.057085918205812547e+00,-3.347337596158180700e-08,0.000000000000000000e+00,-1.508263402732389777e-07
3.175000000000002265e-01,1.307188586206171399e+00,9.134462151179674194e+00,-4.218967522992092762e-08,0.000000000000000000e+00,-1.564006286009411821e-07
3.200000000000002287e-01,1.330068590927866445e+00,9.211594319314917456e+00,-3.991699478264991745e-08,0.000000000000000000e+00,-1.620979947887613204e-07
3.225000000000002309e-01,1.353141286753015260e+00,9.288479887696155401e+00,-4.423285504886881137e-08,0.000000000000000000e+00,-1.679420121443191145e-07
3.250000000000002331e-01,1.376406055694753938e+00,9.365116146520035656e+00,-4.348864826444692882e-08,0.000000000000000000e+00,-1.739352259991296750e-07
