Time (s),Altitude (m),Velocity (m/s),Angular Velocity (rad/s),Fin Cant Angle (deg),Angular Position (deg)
0.000000000000000000e+00,1.000000000000000021e-02,0.000000000000000000e+00,1.258989359659486319e-12,0.000000000000000000e+00,9.633403822316397603e-14
2.500000000000000052e-03,9.986386673313838586e-03,-1.993612637510470270e-02,-2.547323351788235651e-13,0.000000000000000000e+00,2.145605129078714202e-13
5.000000000000000104e-03,9.928091449909519361e-03,-3.078575189319317229e-02,6.202867237466990146e-12,0.000000000000000000e+00,8.902035288849591626e-13
7.499999999999999722e-03,9.847831146498148280e-03,-3.254782839247138265e-02,1.222404030964494397e-11,0.000000000000000000e+00,1.591415847790187524e-12
1.000000000000000021e-02,9.768324834587735830e-03,-2.522197195216013127e-02,1.376375915266687051e-11,0.000000000000000000e+00,2.043274894066580998e-12
1.250000000000000069e-02,9.712292590654245106e-03,-8.807732077110889263e-03,4.265623676075276488e-12,0.000000000000000000e+00,1.827075366608073438e-12
1.500000000000000118e-02,9.702455645396476300e-03,1.669538146932048051e-02,2.328953287662904868e-11,0.000000000000000000e+00,1.161386777986595700e-12
1.750000000000000167e-02,9.761536470455764100e-03,5.128787913897388251e-02,3.593297870887083624e-11,0.000000000000000000e+00,-5.120455371640940631e-13
2.000000000000000042e-02,9.912258819892905484e-03,9.497027775791887227e-02,1.930589610607800857e-11,0.000000000000000000e+00,-3.904650790147940828e-12
2.249999999999999917e-02,1.017734773980247254e-02,1.477430910490385718e-01,1.990959196793377742e-11,0.000000000000000000e+00,-8.637173421927319272e-12
2.499999999999999792e-02,1.058024763767529720e-02,2.068290470616172827e-01,1.404861797938427738e-11,0.000000000000000000e+00,-1.515496486725143879e-11
2.749999999999999667e-02,1.113106972943330580e-02,2.664401795430535458e-01,-3.302924796307544596e-11,0.000000000000000000e+00,-2.344377281216244244e-11
2.999999999999999542e-02,1.183112700828322511e-02,3.264165998091408394e-01,-4.655638716887261890e-11,0.000000000000000000e+00,-3.229729118749873649e-11
3.249999999999999417e-02,1.268133273738300017e-02,3.867583787814412033e-01,-3.526592695600124787e-11,0.000000000000000000e+00,-4.162606650375196540e-11
3.499999999999999639e-02,1.368260034895003516e-02,4.474655733734300700e-01,1.909825381067926108e-11,0.000000000000000000e+00,-5.170393211839027822e-11
3.749999999999999861e-02,1.483584340962246055e-02,5.085382272898921752e-01,-2.313744171657095786e-11,0.000000000000000000e+00,-6.309211839474622075e-11
4.000000000000000083e-02,1.614197558791671122e-02,5.699763718738518614e-01,2.237162923051944223e-13,0.000000000000000000e+00,-7.535050623261432763e-11
4.250000000000000305e-02,1.760191062370674436e-02,6.317800266553619259e-01,-1.125853817931619811e-11,0.000000000000000000e+00,-8.878655150210693325e-11
4.500000000000000527e-02,1.921656229876516492e-02,6.939491991997216447e-01,2.090417705723337074e-11,0.000000000000000000e+00,-1.032360782355898092e-10
4.750000000000000749e-02,2.098684440634226295e-02,7.564838836978298175e-01,1.752695830581708475e-11,0.000000000000000000e+00,-1.190165537535396310e-10
5.000000000000000971e-02,2.291367071622593676e-02,8.193840574015258671e-01,1.713703980723804901e-11,0.000000000000000000e+00,-1.360490494398861178e-10
5.250000000000001193e-02,2.499795492655593893e-02,8.826496650163171420e-01,2.205966230870070720e-11,0.000000000000000000e+00,-1.543804928821162497e-10
5.500000000000001416e-02,2.724061059005294244e-02,9.462806748012816405e-01,1.080957967387569018e-12,0.000000000000000000e+00,-1.740261392885005835e-10
5.750000000000001638e-02,2.964255120525708873e-02,1.010277072391455144e+00,1.428463332648724791e-11,0.000000000000000000e+00,-1.948213827343036768e-10
6.000000000000001860e-02,3.220469022790264230e-02,1.074638830701166281e+00,-8.143631187318958906e-12,0.000000000000000000e+00,-2.168551650001475826e-10
6.250000000000001388e-02,3.492794103804032491e-02,1.139365907980566028e+00,-1.468740222000256760e-11,0.000000000000000000e+00,-2.399715091582037317e-10
6.500000000000001610e-02,3.781321690245384448e-02,1.204458246345891270e+00,-1.666965022631367902e-11,0.000000000000000000e+00,-2.640983099969939915e-10
6.750000000000001832e-02,4.086143093406313653e-02,1.269915772012124355e+00,-1.470628475307092674e-11,0.000000000000000000e+00,-2.892475369254975769e-10
7.000000000000002054e-02,4.407349605368558049e-02,1.335738399927831166e+00,-7.346910691170806058e-12,0.000000000000000000e+00,-3.154156682896819479e-10
7.250000000000002276e-02,4.745032501096885930e-02,1.401925839610827396e+00,-9.245549661828678033e-12,0.000000000000000000e+00,-3.426799864275661216e-10
7.500000000000002498e-02,5.099282955867725370e-02,1.468478238739121977e+00,-1.406879124874757241e-11,0.000000000000000000e+00,-3.710272442769876797e-10
7.750000000000002720e-02,5.470192234955540550e-02,1.535395769834382085e+00,-1.621626498667512752e-11,0.000000000000000000e+00,-4.004168491560037647e-10
8.000000000000002942e-02,5.857851631051613078e-02,1.602678729410014213e+00,-2.583161066594213603e-11,0.000000000000000000e+00,-4.308243479095827170e-10
8.250000000000003164e-02,6.262352530816457652e-02,1.670327984990764181e+00,-3.075739131633072514e-11,0.000000000000000000e+00,-4.622001316413428255e-10
8.500000000000003386e-02,6.683786591348342410e-02,1.738344179952935775e+00,-3.717356467903057613e-11,0.000000000000000000e+00,-4.945232446131846459e-10
8.750000000000003608e-02,7.122245498382033524e-02,1.806725771556799254e+00,-2.672514178303495335e-11,0.000000000000000000e+00,-5.277668962206088578e-10
9.000000000000003830e-02,7.577820479752805927e-02,1.875471605424476440e+00,-1.911845649630568063e-11,0.000000000000000000e+00,-5.619894802861470027e-10
9.250000000000004052e-02,8.050602603483544839e-02,1.944582294323985217e+00,-2.775624607020204382e-12,0.000000000000000000e+00,-5.972354043802661529e-10
9.500000000000004274e-02,8.540683136951605914e-02,2.014058499641571576e+00,-7.530631076882073796e-12,0.000000000000000000e+00,-6.335571470663026832e-10
9.750000000000004496e-02,9.048153483585900936e-02,2.083900574525335614e+00,-1.281911272843356356e-11,0.000000000000000000e+00,-6.709346606912512166e-10
1.000000000000000472e-01,9.573105126771423723e-02,2.154108752544868555e+00,-2.604802776417440253e-11,0.000000000000000000e+00,-7.093155972359988656e-10
1.025000000000000494e-01,1.011562960544712814e-01,2.224683814165372642e+00,-2.003791510720885107e-11,0.000000000000000000e+00,-7.485978778201714080e-10
1.050000000000000516e-01,1.067581866117073564e-01,2.295625320785427359e+00,-3.186850001676706306e-11,0.000000000000000000e+00,-7.888513772745146028e-10
1.075000000000000538e-01,1.125376394936156987e-01,2.366934198116882992e+00,-1.464398195873936896e-10,0.000000000000000000e+00,-8.299666323709680145e-10
1.100000000000000561e-01,1.184955731561346121e-01,2.438610514244297534e+00,-1.066430683390822129e-10,0.000000000000000000e+00,-8.715372772966728966e-10
1.125000000000000583e-01,1.246329062476351640e-01,2.510654392337435148e+00,-1.554098162723965275e-10,0.000000000000000000e+00,-9.135188189431851378e-10
1.150000000000000605e-01,1.309505577637298523e-01,2.583066029651405859e+00,-8.679411060770361662e-11,0.000000000000000000e+00,-9.558708484495301686e-10
1.175000000000000627e-01,1.374494472380747845e-01,2.655845705122018341e+00,7.842097103885572097e-12,0.000000000000000000e+00,-9.986958376264502641e-10
1.200000000000000649e-01,1.441304949500728516e-01,2.728993785538024408e+00,-2.706166882142076149e-10,0.000000000000000000e+00,-1.041886845548771796e-09
1.225000000000000672e-01,1.509946221481821838e-01,2.802510732479013722e+00,-2.400609235559217159e-11,0.000000000000000000e+00,-1.084582037202115738e-09
1.250000000000000555e-01,1.580427512911223298e-01,2.876397110175264782e+00,1.410884523398648993e-10,0.000000000000000000e+00,-1.126875327615584077e-09
1.275000000000000577e-01,1.652758063091452345e-01,2.950653593889122739e+00,5.672128823947175035e-10,0.000000000000000000e+00,-1.169369396489291708e-09
1.300000000000000600e-01,1.726947128863790537e-01,3.025280978230497464e+00,5.071181420430453185e-10,0.000000000000000000e+00,-1.212695731604948933e-09
1.325000000000000622e-01,1.803003987637123162e-01,3.100280184700111796e+00,7.183016608976430033e-10,0.000000000000000000e+00,-1.256118558869568561e-09
1.350000000000000644e-01,1.880937940598489677e-01,3.175652266575056171e+00,4.996110140526629945e-10,0.000000000000000000e+00,-1.299190129122058103e-09
1.375000000000000666e-01,1.960758315913004868e-01,3.251398372759412236e+00,6.845190326615140576e-10,0.000000000000000000e+00,-1.340168756151409844e-09
1.400000000000000688e-01,2.042474471158401694e-01,3.327519817083205655e+00,9.791903863813092827e-10,0.000000000000000000e+00,-1.377851485225852620e-09
1.425000000000000711e-01,2.126095797726949010e-01,3.404018056383775637e+00,1.441725055703282336e-09,0.000000000000000000e+00,-1.411540576714832517e-09
1.450000000000000733e-01,2.211631724131062626e-01,3.480894663774500408e+00,2.256610715454284394e-09,0.000000000000000000e+00,-1.439457691788873985e-09
1.475000000000000755e-01,2.299091718809819773e-01,3.558151306375913592e+00,2.801497623473834359e-09,0.000000000000000000e+00,-1.460204080865993955e-09
1.500000000000000777e-01,2.388485292318434094e-01,3.635789711195821727e+00,3.394695754101523536e-09,0.000000000000000000e+00,-1.470056720165070775e-09
1.525000000000000799e-01,2.479821989940050320e-01,3.713797062240779656e+00,2.208791412607205932e-09,0.000000000000000000e+00,-1.466812886296280067e-09
1.550000000000000822e-01,2.573110887442929817e-01,3.792159861271434007e+00,2.966606342115545629e-09,0.000000000000000000e+00,-1.449821887590438185e-09
1.575000000000000844e-01,2.668360874941284600e-01,3.870878827504871111e+00,4.483546117595593969e-09,0.000000000000000000e+00,-1.418456689623672547e-09
1.600000000000000866e-01,2.765580860904891525e-01,3.949954722736473300e+00,5.179424968256556283e-09,0.000000000000000000e+00,-1.370841545354206545e-09
1.625000000000000888e-01,2.864779772833623284e-01,4.029388298879013064e+00,4.524858787978058542e-09,0.000000000000000000e+00,-1.305185845456272947e-09
1.650000000000000910e-01,2.965966556944780175e-01,4.109180286148099270e+00,3.870588520517104095e-09,0.000000000000000000e+00,-1.222136727302951135e-09
1.675000000000000933e-01,3.069150177539411994e-01,4.189331378855231769e+00,3.637226909679474904e-09,0.000000000000000000e+00,-1.122355661324944758e-09
1.700000000000000955e-01,3.174339616036904177e-01,4.269842224985843870e+00,3.759063437326903465e-09,0.000000000000000000e+00,-1.006801049665896582e-09
1.725000000000000977e-01,3.281543869768110966e-01,4.350713418860058468e+00,3.776436870327131894e-09,0.000000000000000000e+00,-8.758703310566815814e-10
1.750000000000000999e-01,3.390771950753611597e-01,4.431945476780189352e+00,3.660049647137338710e-09,0.000000000000000000e+00,-7.303321046921117633e-10
1.775000000000001021e-01,3.502032882726946461e-01,4.513538791492993418e+00,3.375272817043348178e-09,0.000000000000000000e+00,-5.713035722246364579e-10
1.800000000000001044e-01,3.615335699465779262e-01,4.595493751043947306e+00,3.570281912310348775e-09,0.000000000000000000e+00,-3.999110706111217885e-10
1.825000000000001066e-01,3.730689444085174000e-01,4.677810681054773490e+00,3.637303113560482564e-09,0.000000000000000000e+00,-2.165608774277848115e-10
1.850000000000001088e-01,3.848103167474790087e-01,4.760489843295204082e+00,3.704962520730541982e-09,0.000000000000000000e+00,-2.169578933427592423e-11
1.875000000000001110e-01,3.967585926714898292e-01,4.843531438403068101e+00,3.786338286777764669e-09,0.000000000000000000e+00,1.842241760128678203e-10
1.900000000000001132e-01,4.089146783568792243e-01,4.926935610171875979e+00,3.463656637789620307e-09,0.000000000000000000e+00,4.011327431045058197e-10
1.925000000000001155e-01,4.212794803092599905e-01,5.010702451831635429e+00,3.628343677467484148e-09,0.000000000000000000e+00,6.269806348919824913e-10
1.950000000000001177e-01,4.338539052415640862e-01,5.094832015040565487e+00,3.687103678037971087e-09,0.000000000000000000e+00,8.619528771655036218e-10
1.975000000000001199e-01,4.466388599764324896e-01,5.179324322696658101e+00,3.515307938604218182e-09,0.000000000000000000e+00,1.105797426865766724e-09
2.000000000000001221e-01,4.596352513832909215e-01,5.264179387203570926e+00,3.427887486813841340e-09,0.000000000000000000e+00,1.355783796999027840e-09
2.025000000000001243e-01,4.728439816470598189e-01,5.349398612283484233e+00,3.587944595318583873e-09,0.000000000000000000e+00,1.615614864829585519e-09
2.050000000000001266e-01,4.862659738377544949e-01,5.434984674077479205e+00,3.556310282212641243e-09,0.000000000000000000e+00,1.885779882908285514e-09
2.075000000000001288e-01,4.999021368143311550e-01,5.520933106146888925e+00,3.528117361227396483e-09,0.000000000000000000e+00,2.165196895683934284e-09
2.100000000000001310e-01,5.137533766692657933e-01,5.607244256622919920e+00,3.549179952496606787e-09,0.000000000000000000e+00,2.452804886643500958e-09
2.125000000000001332e-01,5.278206606090614095e-01,5.693813736165843409e+00,3.601114498970914085e-09,0.000000000000000000e+00,2.747900497018796556e-09
2.150000000000001354e-01,5.421042997584786249e-01,5.780216864980257441e+00,3.557341932118925871e-09,0.000000000000000000e+00,3.050067615177834959e-09
2.175000000000001377e-01,5.566038258245081805e-01,5.866407551635535178e+00,3.502401525482776409e-09,0.000000000000000000e+00,3.358182654207380665e-09
2.200000000000001399e-01,5.713187084732217480e-01,5.952387279728490022e+00,3.570765304620048790e-09,0.000000000000000000e+00,3.671619312072921864e-09
2.225000000000001421e-01,5.862484211237635190e-01,6.038158314870530674e+00,3.640168858866284597e-09,0.000000000000000000e+00,3.990885473057962174e-09
2.250000000000001443e-01,6.013924443182768753e-01,6.123724433025084402e+00,3.584733625193183694e-09,0.000000000000000000e+00,4.316798205400346307e-09
2.275000000000001465e-01,6.167502674176231769e-01,6.209087114986315825e+00,3.631393680167405705e-09,0.000000000000000000e+00,4.649401349697478242e-09
2.300000000000001488e-01,6.323213815790604819e-01,6.294244472668684587e+00,3.613284672295485836e-09,0.000000000000000000e+00,4.989401771003248883e-09
2.325000000000001510e-01,6.481052713220791794e-01,6.379191427371362799e+00,3.641598241234058695e-09,0.000000000000000000e+00,5.337197654388760813e-09
2.350000000000001532e-01,6.641014068598155573e-01,6.463922114532712371e+00,3.777140926368733622e-09,0.000000000000000000e+00,5.693417791320441078e-09
2.375000000000001554e-01,6.803092448824994420e-01,6.548433197545018736e+00,3.857052654266430975e-09,0.000000000000000000e+00,6.059533027053658465e-09
2.400000000000001577e-01,6.967282353643128312e-01,6.632724100746008489e+00,3.919884909870454486e-09,0.000000000000000000e+00,6.436470602357182667e-09
2.425000000000001599e-01,7.133578283106912776e-01,6.716796710348829080e+00,3.963758794611341826e-09,0.000000000000000000e+00,6.825175868202659165e-09
2.450000000000001621e-01,7.301974798682454582e-01,6.800653833354762590e+00,4.051549171464995965e-09,0.000000000000000000e+00,7.225958512993719992e-09
2.475000000000001643e-01,7.472466524309967495e-01,6.884297060040934113e+00,4.097209000064983982e-09,0.000000000000000000e+00,7.638753472423087737e-09
2.500000000000001665e-01,7.645048119634798578e-01,6.967727430319789583e+00,4.184423931191256138e-09,0.000000000000000000e+00,8.063042994666256308e-09
2.525000000000001688e-01,7.819714268113444611e-01,7.050945656222221025e+00,4.263609096946765151e-09,0.000000000000000000e+00,8.500509022643606187e-09
2.550000000000001710e-01,7.996459670566555822e-01,7.133952784251203383e+00,4.187352778680282134e-09,0.000000000000000000e+00,8.953036841032665839e-09
2.575000000000001732e-01,8.175279057892255175e-01,7.216750572851188927e+00,4.183974467151799846e-09,0.000000000000000000e+00,9.419748280145326178e-09
2.600000000000001754e-01,8.356167208944659253e-01,7.299342182569070303e+00,4.184789045378549867e-09,0.000000000000000000e+00,9.899861294034666012e-09
2.625000000000001776e-01,8.539118995718438798e-01,7.381731442526040077e+00,4.244502954309560206e-09,0.000000000000000000e+00,1.039279310369067744e-08
2.650000000000001799e-01,8.724129372958867590e-01,7.463919370918257634e+00,4.273856267501850955e-09,0.000000000000000000e+00,1.089875372253990383e-08
2.675000000000001821e-01,8.911193302839215402e-01,7.545903797093162169e+00,4.292817546675734530e-09,0.000000000000000000e+00,1.141753217391575920e-08
2.700000000000001843e-01,9.100305675367199587e-01,7.627679428657807570e+00,4.280316518974688711e-09,0.000000000000000000e+00,1.194847104085640105e-08
2.725000000000001865e-01,9.291461230108122304e-01,7.709239406566038788e+00,4.246747027994187772e-09,0.000000000000000000e+00,1.249044126249308304e-08
2.750000000000001887e-01,9.484654540845612880e-01,7.790578891146947349e+00,4.229386776267746744e-09,0.000000000000000000e+00,1.304178874991592031e-08
2.775000000000001910e-01,9.679880076587836779e-01,7.871695808186570886e+00,4.197294563418386473e-09,0.000000000000000000e+00,1.360190295596561133e-08
2.800000000000001932e-01,9.877132269396948772e-01,7.952590627634943843e+00,4.176073560882751197e-09,0.000000000000000000e+00,1.416961493926886780e-08
2.825000000000001954e-01,1.007640557678446847e+00,8.033266079637252588e+00,4.128867232082167765e-09,0.000000000000000000e+00,1.474456703140544386e-08
2.850000000000001976e-01,1.027769453690158707e+00,8.113725161320298085e+00,4.102786888633757007e-09,0.000000000000000000e+00,1.532557938510046479e-08
2.875000000000001998e-01,1.048099375073953343e+00,8.193969398320966491e+00,4.084503655503799683e-09,0.000000000000000000e+00,1.591410924638283051e-08
2.900000000000002021e-01,1.068629785432624546e+00,8.273999904854472121e+00,4.080992289344389523e-09,0.000000000000000000e+00,1.651137869280783798e-08
2.925000000000002043e-01,1.089360150984536979e+00,8.353817517476066712e+00,4.078067860374848621e-09,0.000000000000000000e+00,1.711916064114551302e-08
2.950000000000002065e-01,1.110289939898545519e+00,8.433422848311924014e+00,4.108968036986722977e-09,0.000000000000000000e+00,1.774036389374615117e-08
2.975000000000002087e-01,1.131418621761310916e+00,8.512816330248355712e+00,4.171278046977759035e-09,0.000000000000000000e+00,1.837711504781902664e-08
3.000000000000002109e-01,1.152745667151541475e+00,8.591998252313251427e+00,4.259953256498223937e-09,0.000000000000000000e+00,1.903159509191761452e-08
3.025000000000002132e-01,1.174270547231140549e+00,8.670967576192989412e+00,4.337206336170787373e-09,0.000000000000000000e+00,1.970370147480690560e-08
3.050000000000002154e-01,1.195992729250315856e+00,8.749723097060220667e+00,4.361292501225533334e-09,0.000000000000000000e+00,2.039338320015173711e-08
3.075000000000002176e-01,1.217911678670932973e+00,8.828264760907401865e+00,4.410778571038374694e-09,0.000000000000000000e+00,2.110142489821022892e-08
3.100000000000002198e-01,1.240026860819934074e+00,8.906592513897008345e+00,4.461784764593817408e-09,0.000000000000000000e+00,2.182775750966751370e-08
3.125000000000002220e-01,1.262337740889762916e+00,8.984706302362511110e+00,4.357107261657619341e-09,0.000000000000000000e+00,2.257309451356779530e-08
3.150000000000002243e-01,1.284843783938792949e+00,9.062606072809829882e+00,4.200297097027666229e-09,0.000000000000000000e+00,2.333928884741712689e-08
3.175000000000002265e-01,1.307544454891759411e+00,9.140291771917031127e+00,4.284498603687374932e-09,0.000000000000000000e+00,2.412897320975741780e-08
3.200000000000002287e-01,1.330439218540189428e+00,9.217763346536614222e+00,4.315224067296627398e-09,0.000000000000000000e+00,2.494255911538233718e-08
3.225000000000002309e-01,1.353527539542839886e+00,9.295020743696534637e+00,4.246086861764487748e-09,0.000000000000000000e+00,2.578067497158113141e-08
3.250000000000002331e-01,1.376808882426136860e+00,9.372063910601694303e+00,3.970707317592745894e-09,0.000000000000000000e+00,2.664438140691987806e-08
