Time (s),Altitude (m),Velocity (m/s),Angular Velocity (rad/s),Fin Cant Angle (deg),Angular Position (deg)
0.000000000000000000e+00,1.000000000000000021e-02,0.000000000000000000e+00,0.000000000000000000e+00,0.000000000000000000e+00,0.000000000000000000e+00
2.500000000000000052e-03,9.986386637788799078e-03,-1.993609490765645142e-02,0.000000000000000000e+00,0.000000000000000000e+00,0.000000000000000000e+00
5.000000000000000104e-03,9.928091511402425615e-03,-3.078551206865149520e-02,5.569508245715684169e-15,0.000000000000000000e+00,0.000000000000000000e+00
7.499999999999999722e-03,9.847831998552700195e-03,-3.254704809451988701e-02,-3.568521629159543209e-15,0.000000000000000000e+00,-5.543479603317766519e-16
1.000000000000000021e-02,9.768328048296847158e-03,-2.522026911580049074e-02,6.820624020805815942e-15,0.000000000000000000e+00,-3.748165328605538048e-15
1.250000000000000069e-02,9.712300694050816918e-03,-8.804742489431548191e-03,-1.806325782830326706e-14,0.000000000000000000e+00,-1.210312969715909096e-14
1.500000000000000118e-02,9.702472051189819924e-03,1.669996567840779239e-02,-5.569009153424865475e-14,0.000000000000000000e+00,-3.225753091636447064e-14
1.750000000000000167e-02,9.761565318633690438e-03,5.129428812861544507e-02,-4.585391609329679659e-14,0.000000000000000000e+00,-6.417740484059326545e-14
2.000000000000000042e-02,9.912304778727969515e-03,9.497865829452639685e-02,-2.864191444547043815e-13,0.000000000000000000e+00,-1.123492004578054436e-13
2.249999999999999917e-02,1.017741579631398045e-02,1.477535085686679239e-01,5.375560426595292947e-14,0.000000000000000000e+00,-1.817797216037075539e-13
2.499999999999999792e-02,1.058034289783833445e-02,2.068414930281828323e-01,-8.318840312039366726e-13,0.000000000000000000e+00,-2.921934815152214282e-13
2.749999999999999667e-02,1.113119723848654714e-02,2.664545823781051537e-01,-1.847597581177906384e-12,0.000000000000000000e+00,-4.269683780824183940e-13
2.999999999999999542e-02,1.183129160091159031e-02,3.264328384041244036e-01,-2.183664655524739983e-12,0.000000000000000000e+00,-5.420304951214248094e-13
3.249999999999999417e-02,1.268153892164847717e-02,3.867762959150943813e-01,-1.700739513271067437e-12,0.000000000000000000e+00,-6.334347505477654978e-13
3.499999999999999639e-02,1.368285222367351256e-02,4.474849886374627772e-01,1.490568684230572697e-12,0.000000000000000000e+00,-6.989017804817518652e-13
3.749999999999999861e-02,1.483614461399406816e-02,5.085589500459661849e-01,2.818631764021271867e-12,0.000000000000000000e+00,-8.422728385389105028e-13
4.000000000000000083e-02,1.614232928164080483e-02,5.699982096854577795e-01,4.175610578301027959e-12,0.000000000000000000e+00,-1.116918754388033344e-12
4.250000000000000305e-02,1.760231948970689825e-02,6.318027982619599525e-01,1.159783818620109899e-11,0.000000000000000000e+00,-1.606408885256933547e-12
4.500000000000000527e-02,1.921702857630700270e-02,6.939727435867558691e-01,1.017240870295741619e-11,0.000000000000000000e+00,-2.515930984135643927e-12
4.750000000000000749e-02,2.098736994918649554e-02,7.565080725267898654e-01,1.199242139562353511e-11,0.000000000000000000e+00,-3.932700661010846265e-12
5.000000000000000971e-02,2.291425708169880088e-02,8.194088095398619487e-01,1.902493743549910508e-11,0.000000000000000000e+00,-6.006922664408327420e-12
5.250000000000001193e-02,2.499860350737817885e-02,8.826749910555239387e-01,2.936749100863214373e-11,0.000000000000000000e+00,-8.999276900261310543e-12
5.500000000000001416e-02,2.724132286508649733e-02,9.463066568803026879e-01,1.980078038247108982e-11,0.000000000000000000e+00,-1.337197252176121981e-11
5.750000000000001638e-02,2.964332888118004217e-02,1.010303834757836361e+00,1.784960709179708034e-11,0.000000000000000000e+00,-1.915698977986011889e-11
6.000000000000001860e-02,3.220553535105843967e-02,1.074666551856109598e+00,5.101997548701698093e-12,0.000000000000000000e+00,-2.655248021959700578e-11
6.250000000000001388e-02,3.492885613767696823e-02,1.139394834683086666e+00,1.314556821603724389e-11,0.000000000000000000e+00,-3.549905681857716326e-11
6.500000000000001610e-02,3.781420516984956154e-02,1.204488709004956970e+00,1.681701586931927596e-11,0.000000000000000000e+00,-4.631038236837918638e-11
6.750000000000001832e-02,4.086249644034889439e-02,1.269948199767012120e+00,-1.828411015835418473e-12,0.000000000000000000e+00,-5.929477960764673150e-11
7.000000000000002054e-02,4.407464400381046199e-02,1.335773331016533172e+00,-1.274392712863311999e-11,0.000000000000000000e+00,-7.438575891542830668e-11
7.250000000000002276e-02,4.745156197444447277e-02,1.401964125828501384e+00,-3.971719741598019618e-11,0.000000000000000000e+00,-9.157138260214041082e-11
7.500000000000002498e-02,5.099416452356397150e-02,1.468520606233508330e+00,-4.466924937664795357e-11,0.000000000000000000e+00,-1.106734272204198760e-10
7.750000000000002720e-02,5.470336587693438307e-02,1.535442793148327656e+00,-5.862728752128865312e-11,0.000000000000000000e+00,-1.318062976793067847e-10
8.000000000000002942e-02,5.858008031195019449e-02,1.602730706308942654e+00,-6.564476775063777555e-11,0.000000000000000000e+00,-1.548413477989953515e-10
8.250000000000003164e-02,6.262522215464695619e-02,1.670384364206551231e+00,-9.504802746411760238e-11,0.000000000000000000e+00,-1.798006122316111724e-10
8.500000000000003386e-02,6.683970577655391765e-02,1.738403784026500087e+00,-1.451480626363013613e-10,0.000000000000000000e+00,-2.065320384147166001e-10
8.750000000000003608e-02,7.122444559139633202e-02,1.806788981590227605e+00,-1.809084094767234751e-10,0.000000000000000000e+00,-2.345154404770508139e-10
9.000000000000003830e-02,7.578035605165464594e-02,1.875539971300723696e+00,-1.913644954584202278e-10,0.000000000000000000e+00,-2.634775111844224205e-10
9.250000000000004052e-02,8.050835164498898466e-02,1.944656766091333866e+00,-1.943016882090186751e-10,0.000000000000000000e+00,-2.934322020609292511e-10
9.500000000000004274e-02,8.540934689053784890e-02,2.014139377378559193e+00,-2.316243975582776330e-10,0.000000000000000000e+00,-3.242445836933392988e-10
9.750000000000004496e-02,9.048425633510165378e-02,2.083987815018848444e+00,-2.666319654239511098e-10,0.000000000000000000e+00,-3.556918705245261820e-10
1.000000000000000472e-01,9.573399454921989460e-02,2.154202087269672550e+00,-2.872764416003807904e-10,0.000000000000000000e+00,-3.874810862011150163e-10
1.025000000000000494e-01,1.011594761268189563e-01,2.224782224664404229e+00,-2.944207455477651149e-10,0.000000000000000000e+00,-4.195094078723780271e-10
1.050000000000000516e-01,1.067616157642125169e-01,2.295728256803944323e+00,-3.253699695409138864e-10,0.000000000000000000e+00,-4.518694908711724191e-10
1.075000000000000538e-01,1.125413281990104708e-01,2.367040183565224165e+00,-3.659624364493421699e-10,0.000000000000000000e+00,-4.843238310008153763e-10
1.100000000000000561e-01,1.184995281664726202e-01,2.438718001051933815e+00,-3.164251409428007379e-10,0.000000000000000000e+00,-5.167766994076391413e-10
1.125000000000000583e-01,1.246371303898519134e-01,2.510761701178776395e+00,-3.398685229572997917e-10,0.000000000000000000e+00,-5.496822005496037038e-10
1.150000000000000605e-01,1.309550495696713279e-01,2.583171271205304542e+00,-3.685579815173027891e-10,0.000000000000000000e+00,-5.829274863976679905e-10
1.175000000000000627e-01,1.374542003718042527e-01,2.655946693211557186e+00,-3.554474278583952476e-10,0.000000000000000000e+00,-6.164972036181503768e-10
1.200000000000000649e-01,1.441354974142090295e-01,2.729087943509587610e+00,-3.327435912014175918e-10,0.000000000000000000e+00,-6.505503145386032549e-10
1.225000000000000672e-01,1.509998552521543969e-01,2.802594991983471839e+00,-4.224266605800606304e-10,0.000000000000000000e+00,-6.854045199721792322e-10
1.250000000000000555e-01,1.580481883617508299e-01,2.876467801346871855e+00,-5.152056507166515823e-10,0.000000000000000000e+00,-7.204670713181032810e-10
1.275000000000000577e-01,1.652814111215765158e-01,2.950706326309628924e+00,-4.147770545315155593e-10,0.000000000000000000e+00,-7.553026795981946535e-10
1.300000000000000600e-01,1.727004377921655398e-01,3.025310512642792382e+00,-1.859859267818156329e-10,0.000000000000000000e+00,-7.907977860790613029e-10
1.325000000000000622e-01,1.803061824930954904e-01,3.100280296128443247e+00,-3.410440965898399332e-10,0.000000000000000000e+00,-8.286634923812988658e-10
1.350000000000000644e-01,1.880995591773842179e-01,3.175615601383598552e+00,-3.452445040057481334e-10,0.000000000000000000e+00,-8.681637323892119361e-10
1.375000000000000666e-01,1.960814816028673135e-01,3.251316340544841310e+00,-1.594719326396848467e-10,0.000000000000000000e+00,-9.093995246764649880e-10
1.400000000000000688e-01,2.042528633002059224e-01,3.327382411795651862e+00,-4.023549421806423728e-10,0.000000000000000000e+00,-9.540914867205138142e-10
1.425000000000000711e-01,2.126146175371169400e-01,3.403813697720066145e+00,-2.587918243405961781e-10,0.000000000000000000e+00,-1.000999876977691153e-09
1.450000000000000733e-01,2.211676572804187890e-01,3.480610058978563348e+00,-2.234526902249665049e-10,0.000000000000000000e+00,-1.050874052210125019e-09
1.475000000000000755e-01,2.299128951219221173e-01,3.557771322632786948e+00,-2.232798893543077815e-10,0.000000000000000000e+00,-1.104987667925399062e-09
1.500000000000000777e-01,2.388512432200186331e-01,3.635297308553705253e+00,-1.836859429992366723e-10,0.000000000000000000e+00,-1.163505106854296629e-09
1.525000000000000799e-01,2.479836133241382079e-01,3.713188839255579410e+00,-6.644452107761724985e-10,0.000000000000000000e+00,-1.226310320084539571e-09
1.550000000000000822e-01,2.573109202959077968e-01,3.791446845715937375e+00,-1.208459909656612713e-09,0.000000000000000000e+00,-1.290837532592233099e-09
1.575000000000000844e-01,2.668340803084693902e-01,3.870071300249275037e+00,-1.103657604664061143e-09,0.000000000000000000e+00,-1.352531411386586479e-09
1.600000000000000866e-01,2.765540094659174053e-01,3.949062160815665745e+00,-6.899680768979641093e-10,0.000000000000000000e+00,-1.411332740846682357e-09
1.625000000000000888e-01,2.864716237489806638e-01,4.028419380643343928e+00,-7.638013212097000257e-10,0.000000000000000000e+00,-1.470340302324991087e-09
1.650000000000000910e-01,2.965878390358030470e-01,4.108142924100000926e+00,-7.550249666038780150e-10,0.000000000000000000e+00,-1.528759705946588096e-09
1.675000000000000933e-01,3.069035711134892042e-01,4.188232751698505396e+00,-9.379272450526387934e-10,0.000000000000000000e+00,-1.586308363742494526e-09
1.700000000000000955e-01,3.174197356679362425e-01,4.268688819235265441e+00,-1.061050628724678456e-09,0.000000000000000000e+00,-1.642032800198335193e-09
1.725000000000000977e-01,3.281372482716166106e-01,4.349511077106614110e+00,-8.081605267799053123e-10,0.000000000000000000e+00,-1.694844109152915580e-09
1.750000000000000999e-01,3.390570243697509922e-01,4.430699469792680034e+00,-9.826058709156990587e-10,0.000000000000000000e+00,-1.745551056861670347e-09
1.775000000000001021e-01,3.501799792652795507e-01,4.512253935496850943e+00,-8.791796638862213793e-10,0.000000000000000000e+00,-1.793066337795427518e-09
1.800000000000001044e-01,3.615070281030232091e-01,4.594174405936457539e+00,-1.417554898238500110e-09,0.000000000000000000e+00,-1.837789215966052695e-09
1.825000000000001066e-01,3.730390858534051168e-01,4.676460806284344685e+00,-1.418972997410380022e-09,0.000000000000000000e+00,-1.876703209380262194e-09
1.850000000000001088e-01,3.847770672961137173e-01,4.759113055261491532e+00,-1.695294214397527245e-09,0.000000000000000000e+00,-1.909218985892140840e-09
1.875000000000001110e-01,3.967218870040859491e-01,4.842131065389128075e+00,-1.756781661366610897e-09,0.000000000000000000e+00,-1.933904972579372203e-09
1.900000000000001132e-01,4.088744593282174766e-01,4.925514743412247931e+00,-1.470279503602059162e-09,0.000000000000000000e+00,-1.950401221683992760e-09
1.925000000000001155e-01,4.212356983832332147e-01,5.009263990907335540e+00,-1.349178262732591558e-09,0.000000000000000000e+00,-1.959827403869416739e-09
1.950000000000001177e-01,4.338065180351897143e-01,5.093378705096752057e+00,-1.625721577066087616e-09,0.000000000000000000e+00,-1.962633181031693135e-09
1.975000000000001199e-01,4.465878318911408185e-01,5.177858779895842645e+00,-1.235025258854666288e-09,0.000000000000000000e+00,-1.957576518926839431e-09
2.000000000000001221e-01,4.595805532915638314e-01,5.262704107223731498e+00,-1.425203715992460507e-09,0.000000000000000000e+00,-1.946205564859698211e-09
2.025000000000001243e-01,4.727855953062993222e-01,5.347914581023736069e+00,-1.747087854630086351e-09,0.000000000000000000e+00,-1.927989034778158866e-09
2.050000000000001266e-01,4.862038707436088791e-01,5.433490098429850867e+00,-1.980069273141750691e-09,0.000000000000000000e+00,-1.901230420086869959e-09
2.075000000000001288e-01,4.998362921545643767e-01,5.519430558657073327e+00,-2.019977830473416081e-09,0.000000000000000000e+00,-1.864999394146225081e-09
2.100000000000001310e-01,5.136837718413916898e-01,5.605735867296904651e+00,-1.875713551948087087e-09,0.000000000000000000e+00,-1.819390422691643718e-09
2.125000000000001332e-01,5.277472869362724861e-01,5.692296851239500910e+00,-2.202149251299679474e-09,0.000000000000000000e+00,-1.764212757283769178e-09
2.150000000000001354e-01,5.420271259997452296e-01,5.778686518290331975e+00,-2.520686902683823638e-09,0.000000000000000000e+00,-1.697988853585973427e-09
2.175000000000001377e-01,5.565228186823814038e-01,5.864863838889196046e+00,-2.680711806166011593e-09,0.000000000000000000e+00,-1.619437622143784648e-09
2.200000000000001399e-01,5.712338340788083446e-01,5.950828750015484836e+00,-2.880426250895930274e-09,0.000000000000000000e+00,-1.527947120377363594e-09
2.225000000000001421e-01,5.861596411392602235e-01,6.036581213664150347e+00,-2.952142401099474452e-09,0.000000000000000000e+00,-1.422757109965447120e-09
2.250000000000001443e-01,6.012997087351120706e-01,6.122121222437610477e+00,-2.817935651968289657e-09,0.000000000000000000e+00,-1.303439271540261435e-09
2.275000000000001465e-01,6.166535057387910745e-01,6.207448805860723340e+00,-2.969679556485275798e-09,0.000000000000000000e+00,-1.170476941368968292e-09
2.300000000000001488e-01,6.322205011198821500e-01,6.292564037425962375e+00,-3.084261222815973351e-09,0.000000000000000000e+00,-1.023449571297726817e-09
2.325000000000001510e-01,6.480001640592515377e-01,6.377467042357910287e+00,-2.718348408004236910e-09,0.000000000000000000e+00,-8.617359658268078436e-10
2.350000000000001532e-01,6.639919640829718972e-01,6.462158006063209115e+00,-2.664534367274328137e-09,0.000000000000000000e+00,-6.869739770744415720e-10
2.375000000000001554e-01,6.801953712177355449e-01,6.546637183207725030e+00,-2.692770045202805756e-09,0.000000000000000000e+00,-4.992509678446557891e-10
2.400000000000001577e-01,6.966098561692830593e-01,6.630904907335484211e+00,-2.437314149933097852e-09,0.000000000000000000e+00,-2.990756224320387432e-10
2.425000000000001599e-01,7.132348905251452154e-01,6.714961600917343176e+00,-2.708057396056106498e-09,0.000000000000000000e+00,-8.706903526672778275e-11
2.450000000000001621e-01,7.300699470135859626e-01,6.798808001189295958e+00,-3.096982900216921379e-09,0.000000000000000000e+00,1.370196136257351581e-10
2.475000000000001643e-01,7.471145004362756969e-01,6.882445003757784008e+00,-2.950404955612987067e-09,0.000000000000000000e+00,3.742962955798383352e-10
2.500000000000001665e-01,7.643680278778006709e-01,6.965873917382515046e+00,-3.014902530528076550e-09,0.000000000000000000e+00,6.241222232561796027e-10
2.525000000000001688e-01,7.818300096030926793e-01,7.049090213268351945e+00,-3.346431152887382234e-09,0.000000000000000000e+00,8.867669476024365254e-10
2.550000000000001710e-01,7.994999082519338440e-01,7.132089076294043650e+00,-3.441534129606693195e-09,0.000000000000000000e+00,1.162856840573684124e-09
2.575000000000001732e-01,8.173771809929167853e-01,7.214871506886030517e+00,-3.943979369003817442e-09,0.000000000000000000e+00,1.452051997469595551e-09
2.600000000000001754e-01,8.354612869897886096e-01,7.297438042670258085e+00,-3.997661597040915338e-09,0.000000000000000000e+00,1.755969311048075384e-09
2.625000000000001776e-01,8.537516870128041280e-01,7.379789273853783804e+00,-3.570681612407786129e-09,0.000000000000000000e+00,2.074889876995271326e-09
2.650000000000001799e-01,8.722478429319285853e-01,7.461925402044066402e+00,-3.841333978659607953e-09,0.000000000000000000e+00,2.407643132503928091e-09
2.675000000000001821e-01,8.909492170760455743e-01,7.543846543735337029e+00,-3.349388811903539483e-09,0.000000000000000000e+00,2.755351380131587838e-09
2.700000000000001843e-01,9.098552720265915550e-01,7.625552751928700523e+00,-2.499971915164017458e-09,0.000000000000000000e+00,3.117065600603609114e-09
2.725000000000001865e-01,9.289654704642018590e-01,7.707044024897728995e+00,-2.630851093253602820e-09,0.000000000000000000e+00,3.490848449133496998e-09
2.750000000000001887e-01,9.482792750363846501e-01,7.788320313487037794e+00,-2.054217535500734038e-09,0.000000000000000000e+00,3.878029149288254340e-09
2.775000000000001910e-01,9.677961482426851170e-01,7.869381527166033230e+00,-2.252981544556716356e-09,0.000000000000000000e+00,4.277354404979846983e-09
2.800000000000001932e-01,9.875155523343456254e-01,7.950227539028231760e+00,-2.190879145692820428e-09,0.000000000000000000e+00,4.690052085362930906e-09
2.825000000000001954e-01,1.007436949225918976e+00,8.030858189896420640e+00,-1.250775839943582740e-09,0.000000000000000000e+00,5.116157461507756384e-09
2.850000000000001976e-01,1.027559800416683711e+00,8.111273291672317143e+00,-4.707264333500550175e-10,0.000000000000000000e+00,5.554666219335807804e-09
2.875000000000001998e-01,1.047883566920045251e+00,8.191472630042506253e+00,-4.112304640999003548e-10,0.000000000000000000e+00,6.004910442204667523e-09
2.900000000000002021e-01,1.068407709199362454e+00,8.271455966634732704e+00,4.269300675990431261e-10,0.000000000000000000e+00,6.467473526939102525e-09
2.925000000000002043e-01,1.089131687108884750e+00,8.351223040706308609e+00,1.624693116525986538e-09,0.000000000000000000e+00,6.941701331306251008e-09
2.950000000000002065e-01,1.110054959838663313e+00,8.430773570430902808e+00,1.423495575963378932e-09,0.000000000000000000e+00,7.425219658531466412e-09
2.975000000000002087e-01,1.131176985862468287e+00,8.510107253833231411e+00,1.158455325944073132e-09,0.000000000000000000e+00,7.919749393802369413e-09
3.000000000000002109e-01,1.152497222887856054e+00,8.589223769418534715e+00,2.012945501870340539e-10,0.000000000000000000e+00,8.427748156964358874e-09
3.025000000000002132e-01,1.174015127881275378e+00,8.668124204211986594e+00,7.922928043507851722e-10,0.000000000000000000e+00,8.950941170121921613e-09
3.050000000000002154e-01,1.195730162016590770e+00,8.746809819823395671e+00,1.120364971997070899e-09,0.000000000000000000e+00,9.488747169046600665e-09
3.075000000000002176e-01,1.217641788206062614e+00,8.825280546263011061e+00,3.099510229535549431e-09,0.000000000000000000e+00,1.003984140509715639e-08
3.100000000000002198e-01,1.239749469187484410e+00,8.903536314433393883e+00,4.518455883870326364e-09,0.000000000000000000e+00,1.060009108096942776e-08
3.125000000000002220e-01,1.262052667526410321e+00,8.981577056127752812e+00,2.288921967637342503e-09,0.000000000000000000e+00,1.116661193438618794e-08
3.150000000000002243e-01,1.284550845618379178e+00,9.059402704024051900e+00,2.789049455084282417e-09,0.000000000000000000e+00,1.174450750306945760e-08
3.175000000000002265e-01,1.307243465691124262e+00,9.137013191679708157e+00,5.114647198242700956e-09,0.000000000000000000e+00,1.233231039499074694e-08
3.200000000000002287e-01,1.330129989806769775e+00,9.214408453529262744e+00,5.728471488685237764e-09,0.000000000000000000e+00,1.292533232889441470e-08
3.225000000000002309e-01,1.353209879864020193e+00,9.291588424880654173e+00,5.699347447717114049e-09,0.000000000000000000e+00,1.352170974617615864e-08
3.250000000000002331e-01,1.376482597600344748e+00,9.368553041914529089e+00,5.133241239211735434e-09,0.000000000000000000e+00,1.412218720521119231e-08
