Time (s),Altitude (m),Velocity (m/s),Angular Velocity (rad/s),Fin Cant Angle (deg),Angular Position (deg)
0.000000000000000000e+00,1.000000000000000021e-02,0.000000000000000000e+00,-4.790087599991179770e-12,0.000000000000000000e+00,-7.754622373348191037e-14
2.500000000000000052e-03,9.986386936852643947e-03,-1.993633685006599571e-02,2.152925237859499271e-11,0.000000000000000000e+00,6.933626766454196727e-13
5.000000000000000104e-03,9.928091059889995740e-03,-3.078763611757179969e-02,5.582861973787111118e-12,0.000000000000000000e+00,-3.215255721024451362e-12
7.499999999999999722e-03,9.847824487087165554e-03,-3.255444492682441071e-02,-1.208468513285751575e-11,0.000000000000000000e+00,-9.491273674873561230e-12
1.000000000000000021e-02,9.768297914623859726e-03,-2.523745112121423412e-02,-6.492882982917323082e-11,0.000000000000000000e+00,-1.709917274625852649e-11
1.250000000000000069e-02,9.712220641218433093e-03,-8.836816760449089925e-03,-4.635360377638409659e-11,0.000000000000000000e+00,-2.875594322228275308e-11
1.500000000000000118e-02,9.702301827418375116e-03,1.664772827202815400e-02,-3.540512635580980809e-10,0.000000000000000000e+00,-4.790840035241407644e-11
1.750000000000000167e-02,9.761251525838897034e-03,5.121680135528761113e-02,-4.615803895864106788e-10,0.000000000000000000e+00,-6.199349306235959940e-11
2.000000000000000042e-02,9.911781503981557592e-03,9.487129056380189107e-02,-9.304548213248722261e-10,0.000000000000000000e+00,-6.706792610013009589e-11
2.249999999999999917e-02,1.017660544021912854e-02,1.476128886164974896e-01,-1.020639976441982908e-09,0.000000000000000000e+00,-4.729041025685031722e-11
2.499999999999999792e-02,1.057916199338878975e-02,2.066675414277248102e-01,-6.707341603650258516e-10,0.000000000000000000e+00,4.790909185215266327e-12
2.749999999999999667e-02,1.112956282969193925e-02,2.662484324815674319e-01,-4.325614045489172739e-11,0.000000000000000000e+00,8.184973673648994855e-11
2.999999999999999542e-02,1.182912412154581497e-02,3.261964893565607038e-01,3.287044522102454504e-10,0.000000000000000000e+00,1.729578604038349730e-10
3.249999999999999417e-02,1.267876422387165421e-02,3.865123704898051349e-01,5.995425526117437531e-10,0.000000000000000000e+00,2.711696338238546167e-10
3.499999999999999639e-02,1.367940299639695996e-02,4.471964930410653460e-01,6.702746428115260970e-10,0.000000000000000000e+00,3.734198443589306010e-10
3.749999999999999861e-02,1.483196120871784797e-02,5.082490536595198893e-01,4.748376079674254214e-10,0.000000000000000000e+00,4.759787618246049235e-10
4.000000000000000083e-02,1.613736000524673350e-02,5.696700606133536793e-01,6.524027281111001937e-10,0.000000000000000000e+00,5.822446788495070669e-10
4.250000000000000305e-02,1.759652045508430795e-02,6.314593714594876062e-01,1.137272303776164750e-09,0.000000000000000000e+00,6.910407398657032077e-10
4.500000000000000527e-02,1.921036319734635220e-02,6.936167315445589399e-01,1.428707412973913614e-09,0.000000000000000000e+00,7.956572433477454502e-10
4.750000000000000749e-02,2.097980818215763529e-02,7.561418101914914036e-01,1.516748299301019804e-09,0.000000000000000000e+00,8.928089883914880416e-10
5.000000000000000971e-02,2.290577449981808303e-02,8.190342318407364264e-01,1.689871518087344211e-09,0.000000000000000000e+00,9.811398938061676858e-10
5.250000000000001193e-02,2.498918020617460489e-02,8.822926641696773320e-01,1.660309453160672897e-09,0.000000000000000000e+00,1.059062214759348659e-09
5.500000000000001416e-02,2.723093917223245661e-02,9.459160519728819772e-01,1.808966501256178327e-09,0.000000000000000000e+00,1.126719839048272585e-09
5.750000000000001638e-02,2.963196379702941544e-02,1.009904413088224429e+00,1.875291679046147515e-09,0.000000000000000000e+00,1.182951085820534949e-09
6.000000000000001860e-02,3.219316652270522855e-02,1.074257762730584487e+00,1.914437999125990254e-09,0.000000000000000000e+00,1.227013514981573031e-09
6.250000000000001388e-02,3.491545982792516184e-02,1.138976113458066486e+00,1.798759143310470278e-09,0.000000000000000000e+00,1.259035592802855005e-09
6.500000000000001610e-02,3.779975622121981016e-02,1.204059475139143798e+00,1.706632306713210535e-09,0.000000000000000000e+00,1.279480261452372127e-09
6.750000000000001832e-02,4.084696823424339984e-02,1.269507854921181567e+00,1.640159243261778064e-09,0.000000000000000000e+00,1.288801366329662556e-09
7.000000000000002054e-02,4.405800841495437215e-02,1.335321257200498657e+00,1.839093354560356668e-09,0.000000000000000000e+00,1.287398067014910109e-09
7.250000000000002276e-02,4.743378932072236237e-02,1.401499683594594092e+00,1.619081143567949964e-09,0.000000000000000000e+00,1.274310189226063696e-09
7.500000000000002498e-02,5.097522351136725416e-02,1.468043132917224769e+00,1.293965304588864251e-09,0.000000000000000000e+00,1.250490889697658998e-09
7.750000000000002720e-02,5.468322354213806663e-02,1.534951601156983036e+00,8.199274060545678073e-10,0.000000000000000000e+00,1.218060275922415483e-09
8.000000000000002942e-02,5.855870195664002881e-02,1.602225081459851541e+00,1.270459700171034359e-09,0.000000000000000000e+00,1.179594984915977097e-09
8.250000000000003164e-02,6.260257127972168600e-02,1.669863564116905064e+00,8.633671626659936554e-10,0.000000000000000000e+00,1.132750063745824849e-09
8.500000000000003386e-02,6.681574401033363308e-02,1.737867036557441569e+00,9.964142363137648732e-10,0.000000000000000000e+00,1.079660213802013549e-09
8.750000000000003608e-02,7.119913261437400831e-02,1.806235483348464399e+00,1.392413905003933530e-09,0.000000000000000000e+00,1.019552165170607332e-09
9.000000000000003830e-02,7.575364951753676968e-02,1.874968886201912266e+00,1.520838334369291760e-09,0.000000000000000000e+00,9.506178004966900006e-10
9.250000000000004052e-02,8.048020709818276552e-02,1.944067223989936144e+00,1.159331939286655286e-09,0.000000000000000000e+00,8.721288918179835309e-10
9.500000000000004274e-02,8.537971768025413855e-02,2.013530472769502477e+00,1.101104811818277585e-09,0.000000000000000000e+00,7.856122049656553979e-10
9.750000000000004496e-02,9.045309352625587052e-02,2.083358605817529963e+00,9.116514777517916752e-10,0.000000000000000000e+00,6.916956566206424279e-10
1.000000000000000472e-01,9.570124683033194579e-02,2.153551593677533127e+00,8.447791750803207867e-10,0.000000000000000000e+00,5.911348040566919212e-10
1.025000000000000494e-01,1.011250897296941259e-01,2.224109637022326780e+00,5.450755838710281476e-10,0.000000000000000000e+00,4.840128010619052396e-10
1.050000000000000516e-01,1.067255350672653841e-01,2.295032850384755019e+00,5.035814441722045417e-10,0.000000000000000000e+00,3.714868264257972606e-10
1.075000000000000538e-01,1.125034956755603111e-01,2.366321068089678015e+00,5.282903466297557338e-10,0.000000000000000000e+00,2.535998322767837725e-10
1.100000000000000561e-01,1.184598839671298226e-01,2.437974114817288207e+00,3.369400120211994070e-10,0.000000000000000000e+00,1.307364573246429247e-10
1.125000000000000583e-01,1.245956119117942185e-01,2.509991808511365718e+00,2.256529221714745516e-10,0.000000000000000000e+00,3.420273928827667788e-12
1.150000000000000605e-01,1.309115910222207746e-01,2.582373965542333227e+00,3.964058075260512950e-10,0.000000000000000000e+00,-1.281400986435800704e-10
1.175000000000000627e-01,1.374087323540646444e-01,2.655120409322548891e+00,2.751006557379401114e-10,0.000000000000000000e+00,-2.643736984346303588e-10
1.200000000000000649e-01,1.440879421505995295e-01,2.728224595413702325e+00,1.094758560359363238e-10,0.000000000000000000e+00,-4.048953347665293263e-10
1.225000000000000672e-01,1.509501198593468929e-01,2.801693427247399892e+00,1.790569327990310485e-10,0.000000000000000000e+00,-5.490383016805986437e-10
1.250000000000000555e-01,1.579961769969037977e-01,2.875527474552963980e+00,2.019720483933879913e-10,0.000000000000000000e+00,-6.971673636469990047e-10
1.275000000000000577e-01,1.652270265509779290e-01,2.949726691550320190e+00,4.729898049015654008e-10,0.000000000000000000e+00,-8.492009730466100102e-10
1.300000000000000600e-01,1.726435814696584137e-01,3.024291190316874101e+00,3.943796935888430301e-10,0.000000000000000000e+00,-1.005963366550980095e-09
1.325000000000000622e-01,1.802467550853308897e-01,3.099221361526669050e+00,4.135800379908439548e-10,0.000000000000000000e+00,-1.167360088433434667e-09
1.350000000000000644e-01,1.880374619960510640e-01,3.174518331788105385e+00,4.407281178560444643e-10,0.000000000000000000e+00,-1.333260230058491385e-09
1.375000000000000666e-01,1.960166201836900934e-01,3.250183516477666679e+00,4.462125197861254833e-10,0.000000000000000000e+00,-1.503646349610200802e-09
1.400000000000000688e-01,2.041851506280482065e-01,3.326216931993462911e+00,4.691590496060610941e-10,0.000000000000000000e+00,-1.678667860581765777e-09
1.425000000000000711e-01,2.125439733226039130e-01,3.402616836050852189e+00,2.394004382881789488e-10,0.000000000000000000e+00,-1.858407486839670838e-09
1.450000000000000733e-01,2.210940029416148533e-01,3.479380792908901565e+00,7.225656960366544563e-11,0.000000000000000000e+00,-2.042404544433920788e-09
1.475000000000000755e-01,2.298361485317163277e-01,3.556507561760660074e+00,-1.105719402354807633e-10,0.000000000000000000e+00,-2.230067389362354268e-09
1.500000000000000777e-01,2.387713168573194489e-01,3.633997263766807873e+00,1.227671732618774942e-10,0.000000000000000000e+00,-2.421113250705273969e-09
1.525000000000000799e-01,2.479004157473321257e-01,3.711851715312244782e+00,-2.841767684601391099e-10,0.000000000000000000e+00,-2.616027425706866901e-09
1.550000000000000822e-01,2.572243588549250060e-01,3.790072994529496864e+00,-3.236569212927772916e-10,0.000000000000000000e+00,-2.813784561465675767e-09
1.575000000000000844e-01,2.667440635960092732e-01,3.868660772321942165e+00,2.245256655736386630e-11,0.000000000000000000e+00,-3.014211950031257374e-09
1.600000000000000866e-01,2.764604453209391077e-01,3.947612572294841637e+00,2.421136156440743394e-10,0.000000000000000000e+00,-3.218145642824888910e-09
1.625000000000000888e-01,2.863744119973714031e-01,4.026925101905858284e+00,2.554932165968123724e-10,0.000000000000000000e+00,-3.425937481049625819e-09
1.650000000000000910e-01,2.964868639455367494e-01,4.106596523610755334e+00,5.664668081418201957e-10,0.000000000000000000e+00,-3.637739886242532087e-09
1.675000000000000933e-01,3.067986978721248259e-01,4.186626645830011206e+00,5.952055175946502380e-10,0.000000000000000000e+00,-3.854166780745010007e-09
1.700000000000000955e-01,3.173108109618130168e-01,4.267016408110051451e+00,9.214414276770891066e-10,0.000000000000000000e+00,-4.075339210633236235e-09
1.725000000000000977e-01,3.280241028708280049e-01,4.347766752993847739e+00,5.654871585773278695e-10,0.000000000000000000e+00,-4.302112731585052699e-09
1.750000000000000999e-01,3.389394755070451182e-01,4.428877995247892940e+00,-5.707361779418071093e-11,0.000000000000000000e+00,-4.533451090043147385e-09
1.775000000000001021e-01,3.500578310793484582e-01,4.510349991579313489e+00,-3.983410817363880163e-10,0.000000000000000000e+00,-4.768171258318321874e-09
1.800000000000001044e-01,3.613800713467492653e-01,4.592182455949139985e+00,-2.871084690772456599e-10,0.000000000000000000e+00,-5.005358513445704337e-09
1.825000000000001066e-01,3.729070972831923791e-01,4.674374992927167405e+00,-6.650606162582766729e-11,0.000000000000000000e+00,-5.246000885908669476e-09
1.850000000000001088e-01,3.846398088198165754e-01,4.756927121767591693e+00,2.634799662675791738e-10,0.000000000000000000e+00,-5.490705870495728061e-09
1.875000000000001110e-01,3.965791046430277023e-01,4.839838293699359362e+00,6.091093203437969928e-10,0.000000000000000000e+00,-5.740138294949637879e-09
1.900000000000001132e-01,4.087258820326059583e-01,4.923107904299439674e+00,8.075762821883751630e-10,0.000000000000000000e+00,-5.994950527947514623e-09
1.925000000000001155e-01,4.210810367284311684e-01,5.006735302312958602e+00,1.251437894648812203e-10,0.000000000000000000e+00,-6.255962739067007870e-09
1.950000000000001177e-01,4.336454628175798742e-01,5.090723411074832505e+00,7.399586806850418353e-10,0.000000000000000000e+00,-6.521386144629040151e-09
1.975000000000001199e-01,4.464200380870086415e-01,5.175102399853619417e+00,1.857073721288238788e-09,0.000000000000000000e+00,-6.791209034355814181e-09
2.000000000000001221e-01,4.594058117620293813e-01,5.259845999363625069e+00,2.088024139717396875e-09,0.000000000000000000e+00,-7.068498195902490513e-09
2.025000000000001243e-01,4.726036556089236451e-01,5.344919598010068107e+00,8.753184934835395527e-10,0.000000000000000000e+00,-7.354397302077023351e-09
2.050000000000001266e-01,4.860143620405708575e-01,5.430355288834245009e+00,-2.130846181933078368e-11,0.000000000000000000e+00,-7.646935043542540657e-09
2.075000000000001288e-01,4.996388695540001090e-01,5.516163590326301325e+00,-1.181174025977635054e-10,0.000000000000000000e+00,-7.943869731693957562e-09
2.100000000000001310e-01,5.134781089084320405e-01,5.602343307004892026e+00,-8.568224603058032367e-10,0.000000000000000000e+00,-8.244483597038429908e-09
2.125000000000001332e-01,5.275330682244776526e-01,5.688788949687210383e+00,-9.632799292474710990e-10,0.000000000000000000e+00,-8.546739438091169259e-09
2.150000000000001354e-01,5.418040773834856827e-01,5.775075662724455050e+00,-2.786803205154899952e-09,0.000000000000000000e+00,-8.850920188437312405e-09
2.175000000000001377e-01,5.562906871712075541e-01,5.861160490727847616e+00,-2.753977610286448861e-09,0.000000000000000000e+00,-9.153270219546596580e-09
2.200000000000001399e-01,5.709923965100670573e-01,5.947047951827784118e+00,-3.069148849697346133e-09,0.000000000000000000e+00,-9.454398950068188242e-09
2.225000000000001421e-01,5.859087130425979506e-01,6.032736363613145691e+00,-3.213060039845390679e-09,0.000000000000000000e+00,-9.753708628362572936e-09
2.250000000000001443e-01,6.010391353180283280e-01,6.118216731051782986e+00,-2.927219344889837356e-09,0.000000000000000000e+00,-1.005143096591040817e-08
2.275000000000001465e-01,6.163831369222515510e-01,6.203481102207053510e+00,-2.790060583584233439e-09,0.000000000000000000e+00,-1.034770851874003400e-08
2.300000000000001488e-01,6.319401756413083326e-01,6.288528722395147597e+00,-3.213169604952511331e-09,0.000000000000000000e+00,-1.064378087614595130e-08
2.325000000000001510e-01,6.477097113487637614e-01,6.373365017604890603e+00,-2.469850146153932083e-09,0.000000000000000000e+00,-1.093824781749510287e-08
2.350000000000001532e-01,6.636912203203679805e-01,6.457995044112585070e+00,-3.440929515739460215e-09,0.000000000000000000e+00,-1.123234921320799955e-08
2.375000000000001554e-01,6.798841877069298212e-01,6.542421448768675596e+00,-3.170170526033472618e-09,0.000000000000000000e+00,-1.152458393800693116e-08
2.400000000000001577e-01,6.962881066980398659e-01,6.626647946025695290e+00,-3.675550179570415500e-09,0.000000000000000000e+00,-1.181503830307641131e-08
2.425000000000001599e-01,7.129024795102264500e-01,6.710677887880358128e+00,-5.763094930425658912e-09,0.000000000000000000e+00,-1.210183776090535746e-08
2.450000000000001621e-01,7.297268165769739134e-01,6.794514395181479038e+00,-9.501358998855988169e-09,0.000000000000000000e+00,-1.238256060379924353e-08
2.475000000000001643e-01,7.467606360361590534e-01,6.878160454970332793e+00,-1.146275788215731257e-08,0.000000000000000000e+00,-1.265064912504062416e-08
2.500000000000001665e-01,7.640034634393442214e-01,6.961618985311106123e+00,-1.070753724268402876e-08,0.000000000000000000e+00,-1.290135334374814262e-08
2.525000000000001688e-01,7.814548313925756551e-01,7.044888355320839679e+00,-1.302802337872921940e-08,0.000000000000000000e+00,-1.313589455530371129e-08
2.550000000000001710e-01,7.991142635402671557e-01,7.127957633043591201e+00,-1.785391014529260041e-08,0.000000000000000000e+00,-1.334992971941791551e-08
2.575000000000001732e-01,8.169813361360308557e-01,7.210822203514094753e+00,-1.598228968711037057e-08,0.000000000000000000e+00,-1.353927656912726886e-08
2.600000000000001754e-01,8.350553320920420797e-01,7.293420851983180242e+00,-1.221597242218814995e-08,0.000000000000000000e+00,-1.370759625854075950e-08
2.625000000000001776e-01,8.533357144589526211e-01,7.375826331655515489e+00,-1.971662487903300800e-08,0.000000000000000000e+00,-1.385982094017807696e-08
2.650000000000001799e-01,8.718220016366258207e-01,7.458040948824587346e+00,-2.254896637941088377e-08,0.000000000000000000e+00,-1.398537175524725599e-08
2.675000000000001821e-01,8.905137176756798834e-01,7.540067012845001138e+00,-3.077731193834987667e-08,0.000000000000000000e+00,-1.407966999493823703e-08
2.700000000000001843e-01,9.094103926872745269e-01,7.621907286619029165e+00,-3.515922006806338015e-08,0.000000000000000000e+00,-1.413266485460943230e-08
2.725000000000001865e-01,9.285115638628590462e-01,7.703564813503026798e+00,-3.130503768110251811e-08,0.000000000000000000e+00,-1.413992343956513557e-08
2.750000000000001887e-01,9.478167761369459265e-01,7.785042879218269540e+00,-3.011490578472250522e-08,0.000000000000000000e+00,-1.410540205892192826e-08
2.775000000000001910e-01,9.673255827979426735e-01,7.866345020200411930e+00,-2.843658324179839054e-08,0.000000000000000000e+00,-1.403138523565162874e-08
2.800000000000001932e-01,9.870375461192119060e-01,7.947475030749730607e+00,-3.395522408759700469e-08,0.000000000000000000e+00,-1.392257089616238210e-08
2.825000000000001954e-01,1.006952238007253309e+00,8.028436968781115013e+00,-2.882335092284596133e-08,0.000000000000000000e+00,-1.377474759545835480e-08
2.850000000000001976e-01,1.027069240663385452e+00,8.109235159946290850e+00,-3.572636360820323800e-08,0.000000000000000000e+00,-1.359266497165335299e-08
2.875000000000001998e-01,1.047388147254719293e+00,8.189874199871633564e+00,-4.947253584544580243e-08,0.000000000000000000e+00,-1.337540584612860464e-08
2.900000000000002021e-01,1.067908562589557464e+00,8.270358954224365178e+00,-4.456499281195558555e-08,0.000000000000000000e+00,-1.310776275398789758e-08
2.925000000000002043e-01,1.088630103791623061e+00,8.350694556297959537e+00,-4.694877049287163577e-08,0.000000000000000000e+00,-1.280070343749955613e-08
2.950000000000002065e-01,1.109552400966729691e+00,8.430886401775373074e+00,-3.888765367648659137e-08,0.000000000000000000e+00,-1.245557974317094745e-08
2.975000000000002087e-01,1.130675097854634714e+00,8.510939997897050802e+00,-3.391341747159632481e-08,0.000000000000000000e+00,-1.208863950545720248e-08
3.000000000000002109e-01,1.151997846578832752e+00,8.590838627454679965e+00,-2.670825085335667384e-08,0.000000000000000000e+00,-1.170738620663605074e-08
3.025000000000002132e-01,1.173520246379189613e+00,8.670519355442065645e+00,-2.998140762223984909e-08,0.000000000000000000e+00,-1.131870828582879961e-08
3.050000000000002154e-01,1.195241694719376468e+00,8.749915827500792886e+00,-2.125264131739335994e-08,0.000000000000000000e+00,-1.092383412172973605e-08
3.075000000000002176e-01,1.217161463287556922e+00,8.829014722437515061e+00,-2.175597135764775099e-08,0.000000000000000000e+00,-1.052920067057375179e-08
3.100000000000002198e-01,1.239278812167711852e+00,8.907822518939157774e+00,-2.534635477672931302e-08,0.000000000000000000e+00,-1.013251110295425253e-08
3.125000000000002220e-01,1.261593017391057447e+00,8.986345710506819628e+00,-2.180151209829637249e-08,0.000000000000000000e+00,-9.730403453082700814e-09
3.150000000000002243e-01,1.284103370981815706e+00,9.064590365940736305e+00,-1.838173041812194451e-08,0.000000000000000000e+00,-9.323386685408978378e-09
3.175000000000002265e-01,1.306809179902111984e+00,9.142562143440212452e+00,-2.667813926714907995e-08,0.000000000000000000e+00,-8.913103234952655697e-09
3.200000000000002287e-01,1.329709765034309044e+00,9.220266308299590818e+00,-3.371602871315248591e-08,0.000000000000000000e+00,-8.494256121036816379e-09
3.225000000000002309e-01,1.352804460209556581e+00,9.297707753921175211e+00,-4.141197496307355481e-08,0.000000000000000000e+00,-8.062560027515133569e-09
3.250000000000002331e-01,1.376092669757581710e+00,9.374994271475786789e+00,-4.629769761600412335e-08,0.000000000000000000e+00,-7.616888836343477830e-09
