Time (s),Altitude (m),Velocity (m/s),Angular Velocity (rad/s),Fin Cant Angle (deg),Angular Position (deg)
0.000000000000000000e+00,1.000000000000000021e-02,0.000000000000000000e+00,0.000000000000000000e+00,0.000000000000000000e+00,0.000000000000000000e+00
2.500000000000000052e-03,9.986386637773079014e-03,-1.993609492579490397e-02,0.000000000000000000e+00,0.000000000000000000e+00,0.000000000000000000e+00
5.000000000000000104e-03,9.928091511289706753e-03,-3.078551216804375351e-02,0.000000000000000000e+00,0.000000000000000000e+00,0.000000000000000000e+00
7.499999999999999722e-03,9.847831997829114073e-03,-3.254704851623036604e-02,0.000000000000000000e+00,0.000000000000000000e+00,0.000000000000000000e+00
1.000000000000000021e-02,9.768328045893271555e-03,-2.522027013642634541e-02,0.000000000000000000e+00,0.000000000000000000e+00,0.000000000000000000e+00
1.250000000000000069e-02,9.712300688597770917e-03,-8.804743159700659239e-03,0.000000000000000000e+00,0.000000000000000000e+00,0.000000000000000000e+00
1.500000000000000118e-02,9.702472043801670804e-03,1.669996636267948031e-02,0.000000000000000000e+00,0.000000000000000000e+00,0.000000000000000000e+00
1.750000000000000167e-02,9.761565314242437452e-03,5.129429234039164370e-02,0.000000000000000000e+00,0.000000000000000000e+00,0.000000000000000000e+00
2.000000000000000042e-02,9.912304787177268067e-03,9.497866821066008880e-02,0.000000000000000000e+00,0.000000000000000000e+00,0.000000000000000000e+00
2.249999999999999917e-02,1.017741583267826530e-02,1.477535260694457508e-01,0.000000000000000000e+00,0.000000000000000000e+00,0.000000000000000000e+00
2.499999999999999792e-02,1.058034298088628838e-02,2.068415183348714104e-01,0.000000000000000000e+00,0.000000000000000000e+00,0.000000000000000000e+00
2.749999999999999667e-02,1.113119738476198509e-02,2.664546117762536248e-01,-7.421540002856460747e-17,0.000000000000000000e+00,0.000000000000000000e+00
2.999999999999999542e-02,1.183129181459806160e-02,3.264328631216453780e-01,-5.181859347361607739e-18,0.000000000000000000e+00,0.000000000000000000e+00
3.249999999999999417e-02,1.268153918109707345e-02,3.867763008581825979e-01,-2.823358990753321710e-16,0.000000000000000000e+00,0.000000000000000000e+00
3.499999999999999639e-02,1.368285246494978409e-02,4.474849512824187192e-01,-1.065961204203056130e-16,0.000000000000000000e+00,0.000000000000000000e+00
3.749999999999999861e-02,1.483614471143776536e-02,5.085588386429760188e-01,-1.100101362382897661e-16,0.000000000000000000e+00,0.000000000000000000e+00
4.000000000000000083e-02,1.614232902539445083e-02,5.699979852820881154e-01,1.171425293593551178e-15,0.000000000000000000e+00,0.000000000000000000e+00
4.250000000000000305e-02,1.760231856655761207e-02,6.318024118083334084e-01,2.484701822658653331e-16,0.000000000000000000e+00,0.000000000000000000e+00
4.500000000000000527e-02,1.921702654520888315e-02,6.939721371537930228e-01,2.833847277354340271e-16,0.000000000000000000e+00,2.520614991106879371e-16
4.750000000000000749e-02,2.098736621816936140e-02,7.565071788011894505e-01,-3.325277629878848617e-15,0.000000000000000000e+00,8.145596295773930476e-16
5.000000000000000971e-02,2.291425088519010236e-02,8.194075528417432697e-01,-8.949120518284689472e-16,0.000000000000000000e+00,2.683113751009794461e-15
5.250000000000001193e-02,2.499859388561021314e-02,8.826732742167469059e-01,-7.856171485521550208e-16,0.000000000000000000e+00,5.046770989390820686e-15
5.500000000000001416e-02,2.724130859552717498e-02,9.463043567975856218e-01,-6.262462439878900342e-15,0.000000000000000000e+00,8.149654913123763864e-15
5.750000000000001638e-02,2.964330842519306494e-02,1.010300813511515461e+00,-4.631285851838735691e-16,0.000000000000000000e+00,1.247172000762348458e-14
6.000000000000001860e-02,3.220550681672158105e-02,1.074662656461206733e+00,4.951068713868749441e-15,0.000000000000000000e+00,1.769859627368917584e-14
6.250000000000001388e-02,3.492881724209005723e-02,1.139389897042796695e+00,8.372493218489634986e-15,0.000000000000000000e+00,2.392812717820061289e-14
6.500000000000001610e-02,3.781415320143252656e-02,1.204482546035993806e+00,-1.991894863424297379e-14,0.000000000000000000e+00,3.091162938689735588e-14
6.750000000000001832e-02,4.086242822155378152e-02,1.269940613717798206e+00,2.177064677379861163e-14,0.000000000000000000e+00,3.943632699988863074e-14
7.000000000000002054e-02,4.407455585470401727e-02,1.335764109932676913e+00,8.934483177497744135e-14,0.000000000000000000e+00,4.837671187323080035e-14
7.250000000000002276e-02,4.745144967760215465e-02,1.401953044222415734e+00,1.125368025884360382e-13,0.000000000000000000e+00,5.661157402970660081e-14
7.500000000000002498e-02,5.099402329066433925e-02,1.468507425856349746e+00,1.064477832171028185e-13,0.000000000000000000e+00,6.418655592865193986e-14
7.750000000000002720e-02,5.470319031738013482e-02,1.535427263915389418e+00,1.133529274926577222e-13,0.000000000000000000e+00,7.097672988114644163e-14
8.000000000000002942e-02,5.857986440387599053e-02,1.602712567354014350e+00,2.166493756103153114e-13,0.000000000000000000e+00,7.733629511543033676e-14
8.250000000000003164e-02,6.262495921862996917e-02,1.670363345055633220e+00,2.065254269200004176e-13,0.000000000000000000e+00,8.139078992827023213e-14
8.500000000000003386e-02,6.683938845232129111e-02,1.738379605881648082e+00,1.601237444257205492e-13,0.000000000000000000e+00,8.360476872525995229e-14
8.750000000000003608e-02,7.122406581779920642e-02,1.806761358714580545e+00,1.902110486840485716e-13,0.000000000000000000e+00,8.429611694115578826e-14
9.000000000000003830e-02,7.577990505015660960e-02,1.875508612495647931e+00,1.846848288194711729e-13,0.000000000000000000e+00,8.339173264839494634e-14
9.250000000000004052e-02,8.050781990689465095e-02,1.944621376257180012e+00,5.657784098066291233e-14,0.000000000000000000e+00,8.061257048027273232e-14
9.500000000000004274e-02,8.540872416816570889e-02,2.014099659150272448e+00,1.361481459734316681e-13,0.000000000000000000e+00,7.774823259230430799e-14
9.750000000000004496e-02,9.048353163221560524e-02,2.083943464092618214e+00,-6.419904376935543806e-14,0.000000000000000000e+00,7.326292252096256732e-14
1.000000000000000472e-01,9.573315611597352226e-02,2.154152807509528422e+00,-2.633750010439719850e-13,0.000000000000000000e+00,6.857857656797038594e-14
1.025000000000000494e-01,1.011585114691557902e-01,2.224727697108361824e+00,-9.358399809727529977e-14,0.000000000000000000e+00,6.619235975230920993e-14
1.050000000000000516e-01,1.067605115628412898e-01,2.295668143208974499e+00,1.569754116720940200e-13,0.000000000000000000e+00,6.352535200305508705e-14
1.075000000000000538e-01,1.125400702937378178e-01,2.366974155574490979e+00,4.575479641204932069e-13,0.000000000000000000e+00,5.918359670604385400e-14
1.100000000000000561e-01,1.184981015832582973e-01,2.438645744320007136e+00,4.688968909836602162e-13,0.000000000000000000e+00,4.792817228783206187e-14
1.125000000000000583e-01,1.246355193779054155e-01,2.510682919646774813e+00,6.727465707608372692e-13,0.000000000000000000e+00,2.956803047429338187e-14
1.150000000000000605e-01,1.309532376505312956e-01,2.583085692308258352e+00,5.765690795454454217e-13,0.000000000000000000e+00,-7.340223481109444857e-17
1.175000000000000627e-01,1.374521704006083367e-01,2.655854073081164834e+00,6.956660418914599051e-13,0.000000000000000000e+00,-4.112920941144591826e-14
1.200000000000000649e-01,1.441332316546737879e-01,2.728988072959075417e+00,3.150020271301167781e-13,0.000000000000000000e+00,-9.454338282201899192e-14
1.225000000000000672e-01,1.509973354668705248e-01,2.802487703150052134e+00,1.864523399865238687e-13,0.000000000000000000e+00,-1.597015494630013309e-13
1.250000000000000555e-01,1.580453959194810520e-01,2.876352975073050988e+00,7.981383653797551207e-13,0.000000000000000000e+00,-2.351828179745828750e-13
1.275000000000000577e-01,1.652783271234520013e-01,2.950583900353351385e+00,2.574516348710865403e-13,0.000000000000000000e+00,-3.274789852809256961e-13
1.300000000000000600e-01,1.726970432189067484e-01,3.025180490817104939e+00,-5.789016045116920651e-13,0.000000000000000000e+00,-4.307737019163476685e-13
1.325000000000000622e-01,1.803024583756440702e-01,3.100142758456154723e+00,4.070060540541325850e-13,0.000000000000000000e+00,-5.407132762631591170e-13
1.350000000000000644e-01,1.880954867935483998e-01,3.175470715507146657e+00,-4.394735508161152281e-13,0.000000000000000000e+00,-6.641267266622262528e-13
1.375000000000000666e-01,1.960770427031978125e-01,3.251164374359910791e+00,-4.780603225255171375e-13,0.000000000000000000e+00,-7.963118581908158583e-13
1.400000000000000688e-01,2.042480403661304234e-01,3.327223747487907168e+00,-5.847426209868272264e-13,0.000000000000000000e+00,-9.350277651770844527e-13
1.425000000000000711e-01,2.126093940753818190e-01,3.403648847706624458e+00,-1.613893635396575206e-12,0.000000000000000000e+00,-1.080084223852649795e-12
1.450000000000000733e-01,2.211620181560066678e-01,3.480439687902563417e+00,-1.688985571980560064e-13,0.000000000000000000e+00,-1.222991469106930920e-12
1.475000000000000755e-01,2.299068269653599395e-01,3.557596281111730097e+00,-2.158280267196546249e-12,0.000000000000000000e+00,-1.373727906287916464e-12
1.500000000000000777e-01,2.388447348934659431e-01,3.635118640511491694e+00,-2.967011443557450006e-12,0.000000000000000000e+00,-1.515884839034498962e-12
1.525000000000000799e-01,2.479766563633671594e-01,3.713006779412434621e+00,-1.385994848078784985e-12,0.000000000000000000e+00,-1.644652717023824128e-12
1.550000000000000822e-01,2.573035058314526724e-01,3.791260711250293181e+00,-2.157759112893945351e-12,0.000000000000000000e+00,-1.768834430758597747e-12
1.575000000000000844e-01,2.668261977877664504e-01,3.869880449577960846e+00,-1.954481149959481303e-12,0.000000000000000000e+00,-1.884680309099844387e-12
1.600000000000000866e-01,2.765456467562958376e-01,3.948866008057607235e+00,-2.090013339510642824e-12,0.000000000000000000e+00,-1.992560655778852704e-12
1.625000000000000888e-01,2.864627672952403392e-01,4.028217400452962949e+00,-1.375269741539775937e-13,0.000000000000000000e+00,-2.094793355697979243e-12
1.650000000000000910e-01,2.965784739972611717e-01,4.107934640621798472e+00,5.675459480456834399e-13,0.000000000000000000e+00,-2.196991953102612939e-12
1.675000000000000933e-01,3.068936814897123000e-01,4.188017742508590935e+00,4.556609947843118757e-13,0.000000000000000000e+00,-2.305415197034960332e-12
1.700000000000000955e-01,3.174093044348531012e-01,4.268466720137402248e+00,7.866007521298050213e-13,0.000000000000000000e+00,-2.414753398162850771e-12
1.725000000000000977e-01,3.281262575301744921e-01,4.349281587709785235e+00,2.389409232948354243e-12,0.000000000000000000e+00,-2.527470228380896041e-12
1.750000000000000999e-01,3.390454555084436161e-01,4.430462359282068441e+00,1.088431079546299810e-12,0.000000000000000000e+00,-2.649307036208977509e-12
1.775000000000001021e-01,3.501678131377339298e-01,4.512009049076277201e+00,-2.442882683424822540e-15,0.000000000000000000e+00,-2.774901974180317074e-12
1.800000000000001044e-01,3.614942452217034252e-01,4.593921671405254870e+00,-2.135944985106798806e-12,0.000000000000000000e+00,-2.895823083087428690e-12
1.825000000000001066e-01,3.730256665998183951e-01,4.676200240553981757e+00,8.084196186070099208e-13,0.000000000000000000e+00,-3.004499213704843412e-12
1.850000000000001088e-01,3.847629921472805470e-01,4.758844770887864506e+00,-1.241369136900881622e-12,0.000000000000000000e+00,-3.108493856347812310e-12
1.875000000000001110e-01,3.967071367752252331e-01,4.841855276809297948e+00,-8.222897715584986980e-13,0.000000000000000000e+00,-3.200863066333558760e-12
1.900000000000001132e-01,4.088590154308109903e-01,4.925231772752659332e+00,-1.765560149842973702e-12,0.000000000000000000e+00,-3.280293795437400708e-12
1.925000000000001155e-01,4.212195430972969223e-01,5.008974273179661374e+00,3.691130423239009709e-12,0.000000000000000000e+00,-3.345637503252292456e-12
1.950000000000001177e-01,4.337896347948930753e-01,5.093082792994744423e+00,2.776360867059923387e-12,0.000000000000000000e+00,-3.407195855727806385e-12
1.975000000000001199e-01,4.465702055795573999e-01,5.177557346342508637e+00,7.569377067467586038e-13,0.000000000000000000e+00,-3.458231961405051390e-12
2.000000000000001221e-01,4.595621705431660042e-01,5.262397947593116854e+00,-5.676239614362823092e-12,0.000000000000000000e+00,-3.494457617336928000e-12
2.025000000000001243e-01,4.727664448134850095e-01,5.347604611464968904e+00,-1.326513883756439599e-11,0.000000000000000000e+00,-3.494457617336928000e-12
2.050000000000001266e-01,4.861839435553796385e-01,5.433177352061781207e+00,-3.129788652330287908e-12,0.000000000000000000e+00,-3.494457617336928000e-12
2.075000000000001288e-01,4.998155819695329627e-01,5.519116184852193463e+00,-4.630345326867003272e-12,0.000000000000000000e+00,-3.494457617336928000e-12
2.100000000000001310e-01,5.136622752949918658e-01,5.605421124529386567e+00,-4.361922657894743408e-12,0.000000000000000000e+00,-3.494457617336928000e-12
2.125000000000001332e-01,5.277249989643286732e-01,5.691987268335969574e+00,-1.504301856535955311e-12,0.000000000000000000e+00,-3.411119522482751503e-12
2.150000000000001354e-01,5.420040709161580983e-01,5.778389167352876221e+00,-1.454261882084333403e-12,0.000000000000000000e+00,-3.303541427894815784e-12
2.175000000000001377e-01,5.564990275816580345e-01,5.864579621862905157e+00,4.878110227192616122e-13,0.000000000000000000e+00,-3.174192961911429411e-12
2.200000000000001399e-01,5.712093403284450588e-01,5.950558594801393930e+00,8.237237757460951487e-12,0.000000000000000000e+00,-3.018387614282459777e-12
2.225000000000001421e-01,5.861344804328463276e-01,6.036326050133397736e+00,1.180264770554673299e-11,0.000000000000000000e+00,-2.824507774932577485e-12
2.250000000000001443e-01,6.012739190794260669e-01,6.121881951055800464e+00,5.886854145216752252e-12,0.000000000000000000e+00,-2.572184742531773149e-12
2.275000000000001465e-01,6.166271273617206505e-01,6.207226261524602329e+00,1.005035561142545027e-11,0.000000000000000000e+00,-2.271358549968513517e-12
2.300000000000001488e-01,6.321935762835129147e-01,6.292358945987268193e+00,1.543104855130929578e-11,0.000000000000000000e+00,-1.903312108095321301e-12
2.325000000000001510e-01,6.479727367594815268e-01,6.377279968758435835e+00,1.478238326976994998e-11,0.000000000000000000e+00,-1.439101633232997225e-12
2.350000000000001532e-01,6.639640796154140379e-01,6.461989294601124811e+00,1.753130338183665115e-11,0.000000000000000000e+00,-8.579078884177085422e-13
2.375000000000001554e-01,6.801670755891254805e-01,6.546486890034596051e+00,1.900473426260747651e-11,0.000000000000000000e+00,-1.384947644377134699e-13
2.400000000000001577e-01,6.965811953405983692e-01,6.630772728072144240e+00,1.989726472312904092e-11,0.000000000000000000e+00,7.541069764205789767e-13
2.425000000000001599e-01,7.132059094627491991e-01,6.714846783812618014e+00,2.088210140708897142e-11,0.000000000000000000e+00,1.831869620544355011e-12
2.450000000000001621e-01,7.300406884857988388e-01,6.798709032541554009e+00,2.398330284615159333e-11,0.000000000000000000e+00,3.119317930628053780e-12
2.475000000000001643e-01,7.470850028779446594e-01,6.882359449199114465e+00,2.643290680336016968e-11,0.000000000000000000e+00,4.666127486955686272e-12
2.500000000000001665e-01,7.643383230445147669e-01,6.965798008333047520e+00,3.192945392792776748e-11,0.000000000000000000e+00,6.528842293234093539e-12
2.525000000000001688e-01,7.818001193268381277e-01,7.049024683681982317e+00,2.732238817292326495e-11,0.000000000000000000e+00,8.819218332640003615e-12
2.550000000000001710e-01,7.994698620008909851e-01,7.132039449967688682e+00,2.741562382738955076e-11,0.000000000000000000e+00,1.146261644546216779e-11
2.575000000000001732e-01,8.173470212787981026e-01,7.214842280300805655e+00,2.647237805880299948e-11,0.000000000000000000e+00,1.445991008944875632e-11
2.600000000000001754e-01,8.354310673054592407e-01,7.297433147932920861e+00,2.649431726155904749e-11,0.000000000000000000e+00,1.776888789649598682e-11
2.625000000000001776e-01,8.537214701587549914e-01,7.379812025851321344e+00,2.622324769052713575e-11,0.000000000000000000e+00,2.135500627551710559e-11
2.650000000000001799e-01,8.722176998491231181e-01,7.461978886979674819e+00,2.717719404806727710e-11,0.000000000000000000e+00,2.514609570486305944e-11
2.675000000000001821e-01,8.909192263187499794e-01,7.543933703669452484e+00,2.847448574320709844e-11,0.000000000000000000e+00,2.909440885627022974e-11
2.700000000000001843e-01,9.098255194407967039e-01,7.625676448235534366e+00,2.976679091849514775e-11,0.000000000000000000e+00,3.317020821776465125e-11
2.725000000000001865e-01,9.289360490191064246e-01,7.707207092804525317e+00,3.360200420922639114e-11,0.000000000000000000e+00,3.734353211673081085e-11
2.750000000000001887e-01,9.482502847877426477e-01,7.788525609330879007e+00,3.738001847363606603e-11,0.000000000000000000e+00,4.145779785992469887e-11
2.775000000000001910e-01,9.677676964105674795e-01,7.869631969612150613e+00,3.861848789925365788e-11,0.000000000000000000e+00,4.531541285981244769e-11
2.800000000000001932e-01,9.874877534808574886e-01,7.950526145303172143e+00,4.292513439083362692e-11,0.000000000000000000e+00,4.889519346942460777e-11
2.825000000000001954e-01,1.007409925520953875e+00,8.031208107929380446e+00,5.026613694431209848e-11,0.000000000000000000e+00,5.205453953486888487e-11
2.850000000000001976e-01,1.027533681981946723e+00,8.111677828899411580e+00,4.555730175585404480e-11,0.000000000000000000e+00,5.453617644072638883e-11
2.875000000000001998e-01,1.047858492243389117e+00,8.191935279517002400e+00,4.402584464024566569e-11,0.000000000000000000e+00,5.640554644493213750e-11
2.900000000000002021e-01,1.068383825613041571e+00,8.271980430992121214e+00,4.241420558192347017e-11,0.000000000000000000e+00,5.770201771913550194e-11
2.925000000000002043e-01,1.089109151326643321e+00,8.351813254451343482e+00,4.892228403347012281e-11,0.000000000000000000e+00,5.846946753473146471e-11
2.950000000000002065e-01,1.110033938547709154e+00,8.431433720947772770e+00,3.644057786966328655e-11,0.000000000000000000e+00,5.851937453367379194e-11
2.975000000000002087e-01,1.131157656367351327e+00,8.510841801470286683e+00,2.394756070472796667e-11,0.000000000000000000e+00,5.795819684897698171e-11
3.000000000000002109e-01,1.152479773804123475e+00,8.590037466952082923e+00,4.027028105229483100e-11,0.000000000000000000e+00,5.689862540820172199e-11
3.025000000000002132e-01,1.173999759803886267e+00,8.669020688279070797e+00,3.682186485710522696e-11,0.000000000000000000e+00,5.516985949621586990e-11
3.050000000000002154e-01,1.195717083239693723e+00,8.747791436297557510e+00,5.542529872903953873e-11,0.000000000000000000e+00,5.264170227958828023e-11
3.075000000000002176e-01,1.217631212911697736e+00,8.826349681821429982e+00,5.316824524324994351e-11,0.000000000000000000e+00,4.916164862947263571e-11
3.100000000000002198e-01,1.239741617547071462e+00,8.904695395639011579e+00,4.901309712732429754e-12,0.000000000000000000e+00,4.462917422111831540e-11
3.125000000000002220e-01,1.262047765799948484e+00,8.982828548519615097e+00,3.514247275543859800e-11,0.000000000000000000e+00,3.953125385729904476e-11
3.150000000000002243e-01,1.284549126251379292e+00,9.060749111219536189e+00,5.780077865376159620e-12,0.000000000000000000e+00,3.344089744961752182e-11
3.175000000000002265e-01,1.307245167409301745e+00,9.138457054487778564e+00,2.156750906758644256e-11,0.000000000000000000e+00,2.663275044318184005e-11
3.200000000000002287e-01,1.330135357708525312e+00,9.215952349071423910e+00,2.578069043992867208e-11,0.000000000000000000e+00,1.894942849285528512e-11
3.225000000000002309e-01,1.353219165510729738e+00,9.293234965720477803e+00,1.712212919670073460e-11,0.000000000000000000e+00,1.022582389904639280e-11
3.250000000000002331e-01,1.376496059104475034e+00,9.370304875192978500e+00,1.781750256235159078e-11,0.000000000000000000e+00,5.389857185836707213e-13
