Time (s),Altitude (m),Velocity (m/s),Angular Velocity (rad/s),Fin Cant Angle (deg),Angular Position (deg)
0.000000000000000000e+00,1.000000000000000021e-02,0.000000000000000000e+00,0.000000000000000000e+00,0.000000000000000000e+00,0.000000000000000000e+00
2.500000000000000052e-03,9.986386637771143063e-03,-1.993609492961460200e-02,0.000000000000000000e+00,0.000000000000000000e+00,0.000000000000000000e+00
5.000000000000000104e-03,9.928091511345854547e-03,-3.078551208871700695e-02,0.000000000000000000e+00,0.000000000000000000e+00,0.000000000000000000e+00
7.499999999999999722e-03,9.847831998182971641e-03,-3.254704832105052154e-02,0.000000000000000000e+00,0.000000000000000000e+00,0.000000000000000000e+00
1.000000000000000021e-02,9.768328046775198031e-03,-2.522026988669918285e-02,0.000000000000000000e+00,0.000000000000000000e+00,0.000000000000000000e+00
1.250000000000000069e-02,9.712300690076882889e-03,-8.804742936017646154e-03,0.000000000000000000e+00,0.000000000000000000e+00,0.000000000000000000e+00
1.500000000000000118e-02,9.702472045793990307e-03,1.669996652052094591e-02,0.000000000000000000e+00,0.000000000000000000e+00,0.000000000000000000e+00
1.750000000000000167e-02,9.761565316576991877e-03,5.129429238947874614e-02,0.000000000000000000e+00,0.000000000000000000e+00,0.000000000000000000e+00
2.000000000000000042e-02,9.912304789498281241e-03,9.497866801673468529e-02,0.000000000000000000e+00,0.000000000000000000e+00,0.000000000000000000e+00
2.249999999999999917e-02,1.017741583421490070e-02,1.477535254914925100e-01,0.000000000000000000e+00,0.000000000000000000e+00,0.000000000000000000e+00
2.499999999999999792e-02,1.058034298072967755e-02,2.068415178119489273e-01,0.000000000000000000e+00,0.000000000000000000e+00,0.000000000000000000e+00
2.749999999999999667e-02,1.113119738412055720e-02,2.664546136151760836e-01,0.000000000000000000e+00,0.000000000000000000e+00,0.000000000000000000e+00
2.999999999999999542e-02,1.183129182244588296e-02,3.264328731313803633e-01,0.000000000000000000e+00,0.000000000000000000e+00,0.000000000000000000e+00
3.249999999999999417e-02,1.268153922394551179e-02,3.867763300721662745e-01,0.000000000000000000e+00,0.000000000000000000e+00,0.000000000000000000e+00
3.499999999999999639e-02,1.368285260092434383e-02,4.474850177150196950e-01,0.000000000000000000e+00,0.000000000000000000e+00,0.000000000000000000e+00
3.749999999999999861e-02,1.483614504871265914e-02,5.085589689979265193e-01,1.722106407627886578e-16,0.000000000000000000e+00,0.000000000000000000e+00
4.000000000000000083e-02,1.614232974484558145e-02,5.699982165635698594e-01,2.976009570198176743e-16,0.000000000000000000e+00,0.000000000000000000e+00
4.250000000000000305e-02,1.760231994845095835e-02,6.318027929267845400e-01,4.728211419434015286e-15,0.000000000000000000e+00,5.952491205321834340e-16
4.500000000000000527e-02,1.921702899965270842e-02,6.939727302314494528e-01,2.027267896435207195e-14,0.000000000000000000e+00,3.297647698866115367e-16
4.750000000000000749e-02,2.098737031879632439e-02,7.565080602935584375e-01,1.937466784034798797e-14,0.000000000000000000e+00,-4.858161357138653775e-15
5.000000000000000971e-02,2.291425740568670336e-02,8.194088146093840841e-01,2.452522748390323170e-15,0.000000000000000000e+00,-1.577161324824443750e-14
5.250000000000001193e-02,2.499860383573609957e-02,8.826749599103698163e-01,4.832761959106457277e-14,0.000000000000000000e+00,-3.198227373176228277e-14
5.500000000000001416e-02,2.724132301106143433e-02,9.463063903540185340e-01,4.811902989675513947e-14,0.000000000000000000e+00,-5.652385033676633251e-14
5.750000000000001638e-02,2.964332808793045462e-02,1.010302979667701884e+00,2.432737707781806224e-14,0.000000000000000000e+00,-8.926444071351558712e-14
6.000000000000001860e-02,3.220553185615149250e-02,1.074664495311493884e+00,4.144844917961186249e-15,0.000000000000000000e+00,-1.295039638160573740e-13
6.250000000000001388e-02,3.492884644348045325e-02,1.139390638260144861e+00,1.758941934772844296e-14,0.000000000000000000e+00,-1.767840069673595073e-13
6.500000000000001610e-02,3.781418318151320845e-02,1.204482258919006732e+00,1.075630566157222723e-14,0.000000000000000000e+00,-2.309533206317915030e-13
6.750000000000001832e-02,4.086245726363129521e-02,1.269939177840215816e+00,7.998358714339930402e-15,0.000000000000000000e+00,-2.926751178813488614e-13
7.000000000000002054e-02,4.407458036019839404e-02,1.335761398750085371e+00,1.195995163603620635e-13,0.000000000000000000e+00,-3.599053109934281404e-13
7.250000000000002276e-02,4.745146692258001703e-02,1.401949884527913914e+00,1.998985305495825916e-13,0.000000000000000000e+00,-4.352609805829992641e-13
7.500000000000002498e-02,5.099403265782646855e-02,1.468504626069193186e+00,2.108035650397968372e-13,0.000000000000000000e+00,-5.183869936455337699e-13
7.750000000000002720e-02,5.470319315757547762e-02,1.535425551020683566e+00,7.078499279525765811e-13,0.000000000000000000e+00,-6.045745876803493452e-13
8.000000000000002942e-02,5.857986384487235548e-02,1.602712614014895287e+00,1.262120933636927411e-12,0.000000000000000000e+00,-6.939289628733966790e-13
8.250000000000003164e-02,6.262496004627883528e-02,1.670365795278038856e+00,1.263177840064184410e-12,0.000000000000000000e+00,-7.822562680492325252e-13
8.500000000000003386e-02,6.683939705124636310e-02,1.738385092341637073e+00,2.620137131400934957e-12,0.000000000000000000e+00,-7.822562680492325252e-13
8.750000000000003608e-02,7.122409015127874332e-02,1.806770515047596115e+00,3.901179347475165043e-12,0.000000000000000000e+00,-7.822562680492325252e-13
9.000000000000003830e-02,7.577995466697914906e-02,1.875522079278133081e+00,4.571919607605836817e-12,0.000000000000000000e+00,-7.822562680492325252e-13
9.250000000000004052e-02,8.050790596367199403e-02,1.944639807906477058e+00,5.560483693343690805e-12,0.000000000000000000e+00,-6.596068550777241759e-13
9.500000000000004274e-02,8.540885946581021348e-02,2.014123725108928564e+00,8.905691478793259483e-12,0.000000000000000000e+00,-3.409221404443039998e-13
9.750000000000004496e-02,9.048373065650586189e-02,2.083973854582192864e+00,1.049950288903134102e-11,0.000000000000000000e+00,3.542221988341365733e-13
1.000000000000000472e-01,9.573343508047918449e-02,2.154190219548261176e+00,1.262342590841586249e-11,0.000000000000000000e+00,1.618545182263508145e-12
1.025000000000000494e-01,1.011588883272980105e-01,2.224772691737246344e+00,1.629354770303665643e-11,0.000000000000000000e+00,3.520569450475333501e-12
1.050000000000000516e-01,1.067610055064293489e-01,2.295721130167620583e+00,2.004812505194053309e-11,0.000000000000000000e+00,6.237750212573016333e-12
1.075000000000000538e-01,1.125407015339715128e-01,2.367035534978399802e+00,2.631752202412398613e-11,0.000000000000000000e+00,9.938454291025983353e-12
1.100000000000000561e-01,1.184988913270124539e-01,2.438715909900420975e+00,3.082589824537705633e-11,0.000000000000000000e+00,1.452109200743217319e-11
1.125000000000000583e-01,1.246364898124421583e-01,2.510762257454750124e+00,3.717974903004054868e-11,0.000000000000000000e+00,2.005086667240641544e-11
1.150000000000000605e-01,1.309544119222216252e-01,2.583174578624529261e+00,3.791650303945184371e-11,0.000000000000000000e+00,2.645828080334358791e-11
1.175000000000000627e-01,1.374535725901740169e-01,2.655952873307829254e+00,3.871647199980662923e-11,0.000000000000000000e+00,3.389135243947259107e-11
1.200000000000000649e-01,1.441348867492164565e-01,2.729097140220016815e+00,4.391433828071865286e-11,0.000000000000000000e+00,4.251021450288196333e-11
1.225000000000000672e-01,1.509992693283508935e-01,2.802607376805331896e+00,4.738777891608646372e-11,0.000000000000000000e+00,5.231242076286737744e-11
1.250000000000000555e-01,1.580476352494402381e-01,2.876483579157086634e+00,5.259251499235605030e-11,0.000000000000000000e+00,6.344466664534016222e-11
1.275000000000000577e-01,1.652808994237897899e-01,2.950725741947430425e+00,5.614275866866127924e-11,0.000000000000000000e+00,7.588064341993556048e-11
1.300000000000000600e-01,1.726999767485588033e-01,3.025333858366565210e+00,7.040999912139011047e-11,0.000000000000000000e+00,8.968207608377858798e-11
1.325000000000000622e-01,1.803057821030255581e-01,3.100307920071655676e+00,5.663851964399141281e-11,0.000000000000000000e+00,1.046709854875834656e-10
1.350000000000000644e-01,1.880992303447298064e-01,3.175647917145752785e+00,4.347694741695760662e-11,0.000000000000000000e+00,1.212938341589284651e-10
1.375000000000000666e-01,1.960812363055199625e-01,3.251353838068101076e+00,4.399912469622190296e-11,0.000000000000000000e+00,1.399012490342374128e-10
1.400000000000000688e-01,2.042527147875310700e-01,3.327425669694668464e+00,4.419915567106048567e-11,0.000000000000000000e+00,1.606041821342634240e-10
1.425000000000000711e-01,2.126145805591212745e-01,3.403863397250464828e+00,6.765836199030893293e-11,0.000000000000000000e+00,1.835164392219931196e-10
1.450000000000000733e-01,2.211677483507953623e-01,3.480667004333983794e+00,8.278034887443761344e-11,0.000000000000000000e+00,2.083456084337842222e-10
1.475000000000000755e-01,2.299131328511470895e-01,3.557836472934617245e+00,9.668465847732159634e-11,0.000000000000000000e+00,2.350389600860600947e-10
1.500000000000000777e-01,2.388516487028525259e-01,3.635371783463454687e+00,1.127340177038060880e-10,0.000000000000000000e+00,2.635629650822693591e-10
1.525000000000000799e-01,2.479842104950691906e-01,3.713272854339173978e+00,7.236266874286158031e-11,0.000000000000000000e+00,2.937838902299742037e-10
1.550000000000000822e-01,2.573117325460414495e-01,3.791539589568917012e+00,4.619886405624247482e-11,0.000000000000000000e+00,3.260937858735781190e-10
1.575000000000000844e-01,2.668351289924016378e-01,3.870171946120763540e+00,2.311070408611835271e-11,0.000000000000000000e+00,3.608034280305196805e-10
1.600000000000000866e-01,2.765553138618915829e-01,3.949169878690304447e+00,3.564588846508435337e-11,0.000000000000000000e+00,3.982132270433246144e-10
1.625000000000000888e-01,2.864732010678490148e-01,4.028533340015908237e+00,-2.115960681589886406e-12,0.000000000000000000e+00,4.382207160972044621e-10
1.650000000000000910e-01,2.965897044045278097e-01,4.108262281277414552e+00,-2.544231826916618877e-11,0.000000000000000000e+00,4.811216246073333205e-10
1.675000000000000933e-01,3.069057375434656731e-01,4.188356652587805762e+00,-7.731997223990594674e-12,0.000000000000000000e+00,5.272276218083758388e-10
1.700000000000000955e-01,3.174222140311379614e-01,4.268816403588136410e+00,7.304691977211808233e-12,0.000000000000000000e+00,5.763960531823385348e-10
1.725000000000000977e-01,3.281400472881605968e-01,4.349641484156617111e+00,2.747115113232224274e-11,0.000000000000000000e+00,6.284264070494789152e-10
1.750000000000000999e-01,3.390601506103347873e-01,4.430831845243507594e+00,2.387666334231937647e-11,0.000000000000000000e+00,6.831989433617055517e-10
1.775000000000001021e-01,3.501834371718539618e-01,4.512387439843178250e+00,8.032244340246565288e-11,0.000000000000000000e+00,7.406845955097290286e-10
1.800000000000001044e-01,3.615108200310227504e-01,4.594308224115373207e+00,1.197257664686657831e-10,0.000000000000000000e+00,8.005005087422651306e-10
1.825000000000001066e-01,3.730432121388664313e-01,4.676594158666698142e+00,8.790233357966780157e-11,0.000000000000000000e+00,8.626958425714294934e-10
1.850000000000001088e-01,3.847815255440384941e-01,4.759243932892531781e+00,1.289304297815915319e-10,0.000000000000000000e+00,9.285647023988180852e-10
1.875000000000001110e-01,3.967266706568620127e-01,4.842258705589367551e+00,1.880393807951858691e-10,0.000000000000000000e+00,9.981043878245495341e-10
1.900000000000001132e-01,4.088795599649166501e-01,4.925638593903035378e+00,1.494436178064449689e-10,0.000000000000000000e+00,1.070847227392265292e-09
1.925000000000001155e-01,4.212411062542709139e-01,5.009383596114251880e+00,1.657754504138848525e-10,0.000000000000000000e+00,1.146892159165117367e-09
1.950000000000001177e-01,4.338122223140727929e-01,5.093493724168036252e+00,1.377219879585693417e-10,0.000000000000000000e+00,1.226050575087109871e-09
1.975000000000001199e-01,4.465938209719677032e-01,5.177969005975604055e+00,1.848010120105723379e-10,0.000000000000000000e+00,1.308366303638389866e-09
2.000000000000001221e-01,4.595868151353793563e-01,5.262809487908731931e+00,1.722190606230027892e-10,0.000000000000000000e+00,1.393434522211934816e-09
2.025000000000001243e-01,4.727921178387435308e-01,5.348015233189017614e+00,1.764626460560680529e-10,0.000000000000000000e+00,1.481216411153617838e-09
2.050000000000001266e-01,4.862106422840070108e-01,5.433586331464484331e+00,2.066556523078584625e-10,0.000000000000000000e+00,1.571511039470203603e-09
2.075000000000001288e-01,4.998433019182429438e-01,5.519522905883451180e+00,1.866956019256600826e-10,0.000000000000000000e+00,1.664044191349330130e-09
2.100000000000001310e-01,5.136910105136553994e-01,5.605825111271966144e+00,2.711852661406707649e-10,0.000000000000000000e+00,1.758637706718132354e-09
2.125000000000001332e-01,5.277547424058677272e-01,5.692388220667505827e+00,2.226977833308612433e-10,0.000000000000000000e+00,1.854697069733785354e-09
2.150000000000001354e-01,5.420348148989515558e-01,5.778787001162692505e+00,1.488952553001273167e-10,0.000000000000000000e+00,1.952136498247162885e-09
2.175000000000001377e-01,5.565307643506416380e-01,5.864974509235995725e+00,2.023688470998077757e-10,0.000000000000000000e+00,2.051036221251667055e-09
2.200000000000001399e-01,5.712420627204544132e-01,5.950951011109185451e+00,1.413054986507871646e-10,0.000000000000000000e+00,2.150976135295215176e-09
2.225000000000001421e-01,5.861681826775904103e-01,6.036716867028492750e+00,1.562087577453856550e-10,0.000000000000000000e+00,2.252111115972438590e-09
2.250000000000001443e-01,6.013085978128277498e-01,6.122272480389410632e+00,9.204643512204999376e-11,0.000000000000000000e+00,2.354394161494526042e-09
2.275000000000001465e-01,6.166627828528822297e-01,6.207618583768510057e+00,6.624796151821734116e-11,0.000000000000000000e+00,2.458026669439580061e-09
2.300000000000001488e-01,6.322302145192889578e-01,6.292755956401582473e+00,1.172443150971614911e-11,0.000000000000000000e+00,2.563093181075236555e-09
2.325000000000001510e-01,6.480103713420635181e-01,6.377685136641273012e+00,7.770861268911293267e-11,0.000000000000000000e+00,2.669824785256143409e-09
2.350000000000001532e-01,6.640027330629094671e-01,6.462406428034563000e+00,1.963434665729720238e-10,0.000000000000000000e+00,2.777986629147139069e-09
2.375000000000001554e-01,6.802067800536221176e-01,6.546919908920726172e+00,2.362659087574040943e-10,0.000000000000000000e+00,2.887256989687123738e-09
2.400000000000001577e-01,6.966219927582973925e-01,6.631225441682987665e+00,2.229452936702787774e-10,0.000000000000000000e+00,2.997514995111258628e-09
2.425000000000001599e-01,7.132478511584765535e-01,6.715322681650426340e+00,2.181382941999918444e-10,0.000000000000000000e+00,3.108943470553512631e-09
2.450000000000001621e-01,7.300838342603540587e-01,6.799211085654032871e+00,2.675114349275647471e-10,0.000000000000000000e+00,3.221671255774278699e-09
2.475000000000001643e-01,7.471294196031863510e-01,6.882889920246389792e+00,4.326078134000021234e-10,0.000000000000000000e+00,3.335675376083141290e-09
2.500000000000001665e-01,7.643840827880685751e-01,6.966358269625374078e+00,5.101001312116775151e-10,0.000000000000000000e+00,3.450632375167900745e-09
2.525000000000001688e-01,7.818472970129946020e-01,7.049615105544572380e+00,5.661459964080329386e-10,0.000000000000000000e+00,3.566577724468942603e-09
2.550000000000001710e-01,7.995185329466112378e-01,7.132659555057455414e+00,5.653269490959631526e-10,0.000000000000000000e+00,3.683507028112265104e-09
2.575000000000001732e-01,8.173972591820387601e-01,7.215490894982964143e+00,5.652013876077214566e-10,0.000000000000000000e+00,3.801577328273892762e-09
2.600000000000001754e-01,8.354829425713330426e-01,7.298108517560955022e+00,5.968296771898396919e-10,0.000000000000000000e+00,3.921037330544502219e-09
2.625000000000001776e-01,8.537750485099785402e-01,7.380511923415877362e+00,7.305082017244195335e-10,0.000000000000000000e+00,4.041847618697931485e-09
2.650000000000001799e-01,8.722730412040611281e-01,7.462700714994185525e+00,8.097244888394354250e-10,0.000000000000000000e+00,4.163857746896293684e-09
2.675000000000001821e-01,8.909763839212874181e-01,7.544674590443726458e+00,7.009086799421667629e-10,0.000000000000000000e+00,4.286980650462219652e-09
2.700000000000001843e-01,9.098845392269385712e-01,7.626433337904320986e+00,6.652105345936648187e-10,0.000000000000000000e+00,4.411768114087055994e-09
2.725000000000001865e-01,9.289969692057702400e-01,7.707976830179942951e+00,7.451604557634478969e-10,0.000000000000000000e+00,4.538526476041802709e-09
2.750000000000001887e-01,9.483131356707955595e-01,7.789305019764422688e+00,5.581569154884691487e-10,0.000000000000000000e+00,4.667063995552364250e-09
2.775000000000001910e-01,9.678325003598216014e-01,7.870417934194217757e+00,6.827877191388939743e-10,0.000000000000000000e+00,4.798121325222725390e-09
2.800000000000001932e-01,9.875545251205414266e-01,7.951315671703577337e+00,4.912310218664045940e-10,0.000000000000000000e+00,4.931620585039139701e-09
2.825000000000001954e-01,1.007478672084926030e+00,8.031998397159007652e+00,5.168599161883109647e-10,0.000000000000000000e+00,5.068150566755738054e-09
2.850000000000001976e-01,1.027604403833600744e+00,8.112466338251831388e+00,7.896967390297033147e-10,0.000000000000000000e+00,5.208098688598439638e-09
2.875000000000001998e-01,1.047931183550841361e+00,8.192719781929145739e+00,5.913560708118326706e-10,0.000000000000000000e+00,5.350793619428971046e-09
2.900000000000002021e-01,1.068458475170774413e+00,8.272759066633222247e+00,6.048731838597162463e-10,0.000000000000000000e+00,5.497047216795940071e-09
2.925000000000002043e-01,1.089185743522488536e+00,8.352584513712777436e+00,6.444028564669554627e-10,0.000000000000000000e+00,5.646771405795033774e-09
2.950000000000002065e-01,1.110112454133504345e+00,8.432196282207268467e+00,7.218003955073142446e-10,0.000000000000000000e+00,5.800141315959611356e-09
2.975000000000002087e-01,1.131238072880053958e+00,8.511594494885512674e+00,5.704763273557407419e-10,0.000000000000000000e+00,5.957381584910469575e-09
3.000000000000002109e-01,1.152562065941707736e+00,8.590779258567806664e+00,8.227066056347110062e-10,0.000000000000000000e+00,6.119007169651766428e-09
3.025000000000002132e-01,1.174083899782807361e+00,8.669751317995832096e+00,7.316302756773049674e-10,0.000000000000000000e+00,6.284490656305445069e-09
3.050000000000002154e-01,1.195803043503176788e+00,8.748511805636926653e+00,8.979671235994448415e-10,0.000000000000000000e+00,6.453930567633827648e-09
3.075000000000002176e-01,1.217718968557371939e+00,8.827061670322802200e+00,8.001603270123388924e-10,0.000000000000000000e+00,6.626859597401017833e-09
3.100000000000002198e-01,1.239831149258443954e+00,8.905402492345979582e+00,9.638600447205286681e-10,0.000000000000000000e+00,6.803577295482966190e-09
3.125000000000002220e-01,1.262139063853828125e+00,8.983535601183151087e+00,8.753068510771355463e-10,0.000000000000000000e+00,6.983379570684550148e-09
3.150000000000002243e-01,1.284642193664717658e+00,9.061461886622531381e+00,8.223668187929212064e-10,0.000000000000000000e+00,7.166447948527133749e-09
3.175000000000002265e-01,1.307340021991761025e+00,9.139181807578005134e+00,6.876513765516216938e-10,0.000000000000000000e+00,7.352679710763664762e-09
3.200000000000002287e-01,1.330232033042780593e+00,9.216695400861592447e+00,7.524179453245673912e-10,0.000000000000000000e+00,7.542104146398053521e-09
3.225000000000002309e-01,1.353317710882389280e+00,9.294002289887336232e+00,5.275602435446812208e-10,0.000000000000000000e+00,7.734124351198388570e-09
3.250000000000002331e-01,1.376596538403324743e+00,9.371101693292470003e+00,1.631886940336627513e-10,0.000000000000000000e+00,7.929159310915126842e-09
3.275000000000002354e-01,1.400067996319287023e+00,9.447992433472379048e+00,5.068911831195838580e-10,0.000000000000000000e+00,8.127735534178882994e-09
