Time (s),Altitude (m),Velocity (m/s),Angular Velocity (rad/s),Fin Cant Angle (deg),Angular Position (deg)
0.000000000000000000e+00,1.000000000000000021e-02,0.000000000000000000e+00,0.000000000000000000e+00,0.000000000000000000e+00,0.000000000000000000e+00
2.500000000000000052e-03,9.986386637767817598e-03,-1.993609493244374170e-02,0.000000000000000000e+00,0.000000000000000000e+00,0.000000000000000000e+00
5.000000000000000104e-03,9.928091511275093442e-03,-3.078551215651009060e-02,0.000000000000000000e+00,0.000000000000000000e+00,0.000000000000000000e+00
7.499999999999999722e-03,9.847831997893963241e-03,-3.254704842136987852e-02,0.000000000000000000e+00,0.000000000000000000e+00,0.000000000000000000e+00
1.000000000000000021e-02,9.768328046246214924e-03,-2.522026992394030970e-02,0.000000000000000000e+00,0.000000000000000000e+00,0.000000000000000000e+00
1.250000000000000069e-02,9.712300689452103147e-03,-8.804742880164605212e-03,0.000000000000000000e+00,0.000000000000000000e+00,0.000000000000000000e+00
1.500000000000000118e-02,9.702472045274404197e-03,1.669996665909059125e-02,0.000000000000000000e+00,0.000000000000000000e+00,0.000000000000000000e+00
1.750000000000000167e-02,9.761565316426487268e-03,5.129429188188510541e-02,0.000000000000000000e+00,0.000000000000000000e+00,0.000000000000000000e+00
2.000000000000000042e-02,9.912304785394478873e-03,9.497865367011942839e-02,0.000000000000000000e+00,0.000000000000000000e+00,0.000000000000000000e+00
2.249999999999999917e-02,1.017741577901733890e-02,1.477534606123004357e-01,0.000000000000000000e+00,0.000000000000000000e+00,0.000000000000000000e+00
2.499999999999999792e-02,1.058034270001200795e-02,2.068413616402630384e-01,0.000000000000000000e+00,0.000000000000000000e+00,0.000000000000000000e+00
2.749999999999999667e-02,1.113119663010131433e-02,2.664543356238247007e-01,0.000000000000000000e+00,0.000000000000000000e+00,0.000000000000000000e+00
2.999999999999999542e-02,1.183129026953797305e-02,3.264324378653504777e-01,0.000000000000000000e+00,0.000000000000000000e+00,0.000000000000000000e+00
3.249999999999999417e-02,1.268153645559332368e-02,3.867756980155312996e-01,0.000000000000000000e+00,0.000000000000000000e+00,0.000000000000000000e+00
3.499999999999999639e-02,1.368284809987377684e-02,4.474841459694061108e-01,0.000000000000000000e+00,0.000000000000000000e+00,0.000000000000000000e+00
3.749999999999999861e-02,1.483613818881154844e-02,5.085578116900800749e-01,0.000000000000000000e+00,0.000000000000000000e+00,0.000000000000000000e+00
4.000000000000000083e-02,1.614231978375809187e-02,5.699967251148930769e-01,0.000000000000000000e+00,0.000000000000000000e+00,0.000000000000000000e+00
4.250000000000000305e-02,1.760230602087828680e-02,6.318009161042054123e-01,0.000000000000000000e+00,0.000000000000000000e+00,0.000000000000000000e+00
4.500000000000000527e-02,1.921701011093414693e-02,6.939704144105134365e-01,0.000000000000000000e+00,0.000000000000000000e+00,0.000000000000000000e+00
4.750000000000000749e-02,2.098734533900023513e-02,7.565052496580321195e-01,0.000000000000000000e+00,0.000000000000000000e+00,0.000000000000000000e+00
5.000000000000000971e-02,2.291422506413284127e-02,8.194054513281351371e-01,0.000000000000000000e+00,0.000000000000000000e+00,0.000000000000000000e+00
5.250000000000001193e-02,2.499856272202228766e-02,8.826710784239945040e-01,0.000000000000000000e+00,0.000000000000000000e+00,0.000000000000000000e+00
5.500000000000001416e-02,2.724127192739545997e-02,9.463021920449394830e-01,0.000000000000000000e+00,0.000000000000000000e+00,0.000000000000000000e+00
5.750000000000001638e-02,2.964326641388817518e-02,1.010298823435300530e+00,0.000000000000000000e+00,0.000000000000000000e+00,0.000000000000000000e+00
6.000000000000001860e-02,3.220545999359765432e-02,1.074661004276233456e+00,0.000000000000000000e+00,0.000000000000000000e+00,0.000000000000000000e+00
6.250000000000001388e-02,3.492876655804500602e-02,1.139388766513063089e+00,0.000000000000000000e+00,0.000000000000000000e+00,0.000000000000000000e+00
6.500000000000001610e-02,3.781410007874997509e-02,1.204482142241397824e+00,0.000000000000000000e+00,0.000000000000000000e+00,0.000000000000000000e+00
6.750000000000001832e-02,4.086237460754875428e-02,1.269941163629991765e+00,-9.262359715044239861e-16,0.000000000000000000e+00,0.000000000000000000e+00
7.000000000000002054e-02,4.407450427673673815e-02,1.335765862845391894e+00,-3.267362842979320748e-15,0.000000000000000000e+00,0.000000000000000000e+00
7.250000000000002276e-02,4.745140329920155553e-02,1.401956272200800324e+00,-1.049708190908512352e-15,0.000000000000000000e+00,8.460866523568558834e-16
7.500000000000002498e-02,5.099398596834900377e-02,1.468512423744932516e+00,3.938605471390563323e-15,0.000000000000000000e+00,2.191163146022933801e-15
7.750000000000002720e-02,5.470316665748754803e-02,1.535434349126059139e+00,3.458654000412189185e-14,0.000000000000000000e+00,2.748365866652800151e-15
8.000000000000002942e-02,5.857985981933341857e-02,1.602722079822222145e+00,3.934236198077632139e-14,0.000000000000000000e+00,1.236907129266379810e-15
8.250000000000003164e-02,6.262497998502879193e-02,1.670375647602404978e+00,-2.998737436256594956e-14,0.000000000000000000e+00,-1.883068500274846163e-15
8.500000000000003386e-02,6.683944176509269697e-02,1.738395083795904128e+00,-1.878599452030366389e-13,0.000000000000000000e+00,-6.359250069711345668e-15
8.750000000000003608e-02,7.122415984721239268e-02,1.806780418862141024e+00,1.246586789227084564e-13,0.000000000000000000e+00,-4.042464599434564796e-15
9.000000000000003830e-02,7.578004899672564909e-02,1.875531683890406365e+00,3.365529280665243172e-13,0.000000000000000000e+00,-7.079226134738478770e-15
9.250000000000004052e-02,8.050802405575664678e-02,1.944648909147047577e+00,4.513569314787767841e-14,0.000000000000000000e+00,-2.954933593465011001e-14
9.500000000000004274e-02,8.540899994155382036e-02,2.014132124099814902e+00,-3.178633762716013197e-13,0.000000000000000000e+00,-6.909533541154501481e-14
9.750000000000004496e-02,9.048389164523464034e-02,2.083981358180136301e+00,1.193688245799147846e-13,0.000000000000000000e+00,-1.092380624910260464e-13
1.000000000000000472e-01,9.573361423091450439e-02,2.154196639888982023e+00,4.042915394751306645e-13,0.000000000000000000e+00,-1.809539548292542781e-13
1.025000000000000494e-01,1.011590828311477591e-01,2.224777966535082196e+00,1.176761091531794373e-12,0.000000000000000000e+00,-2.906042698202405816e-13
1.050000000000000516e-01,1.067612125390232786e-01,2.295725331896661725e+00,6.129576106302260602e-13,0.000000000000000000e+00,-4.731459156737249198e-13
1.075000000000000538e-01,1.125409184647888916e-01,2.367038759791020297e+00,-1.962707143709564269e-12,0.000000000000000000e+00,-7.207881008325848677e-13
1.100000000000000561e-01,1.184991157768710834e-01,2.438718270738990945e+00,-3.366257338360943066e-12,0.000000000000000000e+00,-9.918608321177211985e-13
1.125000000000000583e-01,1.246367196953865886e-01,2.510763886737076511e+00,-2.960494552985970390e-12,0.000000000000000000e+00,-1.271764465146268896e-12
1.150000000000000605e-01,1.309546454940964666e-01,2.583175627580754696e+00,-6.880043101528691575e-12,0.000000000000000000e+00,-1.595664090802023848e-12
1.175000000000000627e-01,1.374538084965577500e-01,2.655953512673936423e+00,-7.370114617733682224e-12,0.000000000000000000e+00,-1.823324644380918284e-12
1.200000000000000649e-01,1.441351240737357431e-01,2.729097559833854714e+00,-2.578906160871992808e-12,0.000000000000000000e+00,-1.984716100905750067e-12
1.225000000000000672e-01,1.509995076403893854e-01,2.802607785497051474e+00,-9.119541360917144372e-12,0.000000000000000000e+00,-2.142919784030717875e-12
1.250000000000000555e-01,1.580478746515387445e-01,2.876484204572031800e+00,1.781628499341828275e-12,0.000000000000000000e+00,-2.209874340454260041e-12
1.275000000000000577e-01,1.652811405985574467e-01,2.950726830276450663e+00,1.624436424788635733e-11,0.000000000000000000e+00,-2.325521652857207159e-12
1.300000000000000600e-01,1.727002210048473319e-01,3.025335673958347460e+00,3.289249399138196145e-12,0.000000000000000000e+00,-2.751536939684455211e-12
1.325000000000000622e-01,1.803060314210582771e-01,3.100310744898741699e+00,-1.438564035583484508e-11,0.000000000000000000e+00,-3.407646849312001537e-12
1.350000000000000644e-01,1.880994874198014255e-01,3.175652050094693202e+00,-1.787106142150934305e-11,0.000000000000000000e+00,-4.001957359256996541e-12
1.375000000000000666e-01,1.960815045898099962e-01,3.251359594020641453e+00,-4.809691392698930669e-11,0.000000000000000000e+00,-4.443040930242804561e-12
1.400000000000000688e-01,2.042529985294905814e-01,3.327433378368313210e+00,-4.063466157962923849e-11,0.000000000000000000e+00,-4.285902552973914233e-12
1.425000000000000711e-01,2.126148848398111135e-01,3.403873401760630912e+00,-4.889368182172907620e-11,0.000000000000000000e+00,-3.600263827039743820e-12
1.450000000000000733e-01,2.211680791164581106e-01,3.480679659440061968e+00,-6.582067160045687370e-11,0.000000000000000000e+00,-1.890706041915979494e-12
1.475000000000000755e-01,2.299134969411994744e-01,3.557852142927207417e+00,-1.037412536242216531e-10,0.000000000000000000e+00,1.207380440124533114e-12
1.500000000000000777e-01,2.388520538723771791e-01,3.635390839649982109e+00,-9.174243521916265495e-11,0.000000000000000000e+00,6.516305049803926791e-12
1.525000000000000799e-01,2.479846654230852820e-01,3.713295590422261316e+00,-1.116394734579517194e-10,0.000000000000000000e+00,1.386040990084499918e-11
1.550000000000000822e-01,2.573122465501754275e-01,3.791566209736411786e+00,-1.382154791035398481e-10,0.000000000000000000e+00,2.370107222317707869e-11
1.575000000000000844e-01,2.668357118951555917e-01,3.870202644208938558e+00,-1.530792910584445373e-10,0.000000000000000000e+00,3.687174745751133313e-11
1.600000000000000866e-01,2.765559759630398240e-01,3.949204834723284652e+00,-1.412688982733451333e-10,0.000000000000000000e+00,5.381240162743024909e-11
1.625000000000000888e-01,2.864739531075243817e-01,4.028572715652108727e+00,-1.578160639220021740e-10,0.000000000000000000e+00,7.441541839763318249e-11
1.650000000000000910e-01,2.965905575143590323e-01,4.108306214319615179e+00,-1.680589998163009997e-10,0.000000000000000000e+00,9.919802408944870117e-11
1.675000000000000933e-01,3.069067031835128190e-01,4.188405250713678640e+00,-1.821919448816162353e-10,0.000000000000000000e+00,1.281325698390971358e-10
1.700000000000000955e-01,3.174233039107726140e-01,4.268869737469348280e+00,-1.456356758242829908e-10,0.000000000000000000e+00,1.617223836694773596e-10
1.725000000000000977e-01,3.281412732694673484e-01,4.349699580160799606e+00,-1.547751995681732328e-10,0.000000000000000000e+00,1.996520246029684046e-10
1.750000000000000999e-01,3.390615245931163924e-01,4.430894677955435235e+00,-1.299456739593774169e-10,0.000000000000000000e+00,2.421848740333902247e-10
1.775000000000001021e-01,3.501849709599463289e-01,4.512454924705887827e+00,-1.813325909243048947e-10,0.000000000000000000e+00,2.890335921092996024e-10
1.800000000000001044e-01,3.615125251804196527e-01,4.594380210578386858e+00,-1.696922936239290590e-10,0.000000000000000000e+00,3.405451382221309273e-10
1.825000000000001066e-01,3.730450997891818776e-01,4.676670424343888577e+00,-1.780507292482038623e-10,0.000000000000000000e+00,3.968358422879703806e-10
1.850000000000001088e-01,3.847836070431653321e-01,4.759325456491303008e+00,-1.807047550166901705e-10,0.000000000000000000e+00,4.578042635958761468e-10
1.875000000000001110e-01,3.967289589280065809e-01,4.842345203357583117e+00,-2.090902840643276465e-10,0.000000000000000000e+00,5.232680948679720337e-10
1.900000000000001132e-01,4.088820671754402891e-01,4.925729572507430376e+00,-1.999953450700435625e-10,0.000000000000000000e+00,5.938203605748292872e-10
1.925000000000001155e-01,4.212438420835010744e-01,5.009476614418407969e+00,-2.420213935103202686e-10,0.000000000000000000e+00,6.702680345024968080e-10
1.950000000000001177e-01,4.338151915969337691e-01,5.093588113645922455e+00,-1.990087544894865162e-10,0.000000000000000000e+00,7.529946266053478043e-10
1.975000000000001199e-01,4.465970268504007579e-01,5.178064264964937990e+00,-1.741962065402645101e-10,0.000000000000000000e+00,8.417304062814084336e-10
2.000000000000001221e-01,4.595902594905134086e-01,5.262905116532936134e+00,-1.934122519778433359e-10,0.000000000000000000e+00,9.359875293591593458e-10
2.025000000000001243e-01,4.727958013439834128e-01,5.348111091246850357e+00,-7.707960707529523289e-11,0.000000000000000000e+00,1.035994395398941653e-09
2.050000000000001266e-01,4.862145656102029312e-01,5.433682557558866755e+00,-1.785651005698439474e-10,0.000000000000000000e+00,1.141012166107294367e-09
2.075000000000001288e-01,4.998474660276102655e-01,5.519619532707236154e+00,-1.833573393833789264e-10,0.000000000000000000e+00,1.251658008244397063e-09
2.100000000000001310e-01,5.136954163795468542e-01,5.605922037146751968e+00,-1.844416531487689270e-10,0.000000000000000000e+00,1.367874030006828495e-09
2.125000000000001332e-01,5.277593906594658657e-01,5.692485177911127181e+00,-2.976221287587311481e-10,0.000000000000000000e+00,1.489668085713017214e-09
2.150000000000001354e-01,5.420397053958443401e-01,5.778883521941618362e+00,-2.169193392008598466e-10,0.000000000000000000e+00,1.617405704427732564e-09
2.175000000000001377e-01,5.565358956498256404e-01,5.865069887680864014e+00,-2.160716239837993483e-10,0.000000000000000000e+00,1.750749370433254937e-09
2.200000000000001399e-01,5.712474314671395215e-01,5.951044260750360415e+00,-2.001995831548692674e-10,0.000000000000000000e+00,1.889647388272314321e-09
2.225000000000001421e-01,5.861737828598607702e-01,6.036806630838601251e+00,-2.448075688182564687e-10,0.000000000000000000e+00,2.033829664031131055e-09
2.250000000000001443e-01,6.013144198165900622e-01,6.122356991724055675e+00,-2.586841557386160708e-10,0.000000000000000000e+00,2.183433823262122232e-09
2.275000000000001465e-01,6.166688123126888854e-01,6.207695341292155611e+00,-2.402634258176340296e-10,0.000000000000000000e+00,2.338186811131026618e-09
2.300000000000001488e-01,6.322364303205538771e-01,6.292821681546286960e+00,-2.001501695313614278e-10,0.000000000000000000e+00,2.497826226709761526e-09
2.325000000000001510e-01,6.480167438199150309e-01,6.377736018612751856e+00,-1.782596706088761107e-10,0.000000000000000000e+00,2.662236797403618108e-09
2.350000000000001532e-01,6.640092228081430070e-01,6.462438362740119402e+00,-3.185173396114275047e-10,0.000000000000000000e+00,2.831048456879613573e-09
2.375000000000001554e-01,6.802133373105523351e-01,6.546928728293690547e+00,-4.161301966731056334e-10,0.000000000000000000e+00,3.004531823436631049e-09
2.400000000000001577e-01,6.966285573906879636e-01,6.631207133745203208e+00,-5.812053223258237836e-10,0.000000000000000000e+00,3.182744285580417823e-09
2.425000000000001599e-01,7.132543531605836096e-01,6.715273601657945512e+00,-4.737226489839708595e-10,0.000000000000000000e+00,3.365971697263733097e-09
2.450000000000001621e-01,7.300901947909802514e-01,6.799128158667689270e+00,-6.993537449207122608e-10,0.000000000000000000e+00,3.553651991566902178e-09
2.475000000000001643e-01,7.471355525214953275e-01,6.882770835460139125e+00,-6.891612701353112364e-10,0.000000000000000000e+00,3.746178614500657240e-09
2.500000000000001665e-01,7.643898966792985750e-01,6.966201696271403065e+00,-5.445788774921220447e-10,0.000000000000000000e+00,3.943147589005448689e-09
2.525000000000001688e-01,7.818526974785189321e-01,7.049418808235981437e+00,-6.130530494031629332e-10,0.000000000000000000e+00,4.144546455374564080e-09
2.550000000000001710e-01,7.995234188611747284e-01,7.132421483211201618e+00,-6.316216903798158162e-10,0.000000000000000000e+00,4.351323648505206205e-09
2.575000000000001732e-01,8.174015256511300009e-01,7.215211039323143893e+00,-8.568758032705398421e-10,0.000000000000000000e+00,4.564778552755280285e-09
2.600000000000001754e-01,8.354864856161883235e-01,7.297788254846889977e+00,-7.249508746481865751e-10,0.000000000000000000e+00,4.786896242347687764e-09
2.625000000000001776e-01,8.537777682205934804e-01,7.380153530274323970e+00,-8.091264482290695695e-10,0.000000000000000000e+00,5.019274372227096537e-09
2.650000000000001799e-01,8.722748437531044896e-01,7.462306998301873939e+00,-6.118603183931750592e-10,0.000000000000000000e+00,5.263998520084586707e-09
2.675000000000001821e-01,8.909771827082479945e-01,7.544248600183141917e+00,-6.378246796415073037e-11,0.000000000000000000e+00,5.522935953863904889e-09
2.700000000000001843e-01,9.098842553427414215e-01,7.625978138017761587e+00,3.830352625016981420e-10,0.000000000000000000e+00,5.799019482888062498e-09
2.725000000000001865e-01,9.289955268140889233e-01,7.707500222631238351e+00,2.284905448216680562e-10,0.000000000000000000e+00,6.084658495990384974e-09
2.750000000000001887e-01,9.483104930829729939e-01,7.788815247059024394e+00,-6.129946653377351226e-10,0.000000000000000000e+00,6.381553985544451128e-09
2.775000000000001910e-01,9.678286266206341804e-01,7.869918063206357672e+00,-4.325791057008785220e-10,0.000000000000000000e+00,6.695085248849518763e-09
2.800000000000001932e-01,9.875493964096013766e-01,7.950807663946828363e+00,4.029152845298103532e-11,0.000000000000000000e+00,7.028169145880703701e-09
2.825000000000001954e-01,1.007472268892534828e+00,8.031483232529883054e+00,-1.698102731522517445e-10,0.000000000000000000e+00,7.383369401936184273e-09
2.850000000000001976e-01,1.027596708544803006e+00,8.111943932329717555e+00,4.857200461000536390e-11,0.000000000000000000e+00,7.766154245689080634e-09
2.875000000000001998e-01,1.047922177683586309e+00,8.192188803637593608e+00,-4.814168321436839705e-10,0.000000000000000000e+00,8.182314243938862347e-09
2.900000000000002021e-01,1.068448136153177686e+00,8.272216749288613613e+00,-8.601599179424134662e-10,0.000000000000000000e+00,8.639979259538983077e-09
2.925000000000002043e-01,1.089174040972047175e+00,8.352026516030488068e+00,5.872158766828180922e-10,0.000000000000000000e+00,9.149248319465188837e-09
2.950000000000002065e-01,1.110099345930787518e+00,8.431616671082258208e+00,-1.022492965568947364e-09,0.000000000000000000e+00,9.715548223569410435e-09
2.975000000000002087e-01,1.131223501128540976e+00,8.510985573140480653e+00,2.304161921888360182e-10,0.000000000000000000e+00,1.035660133886236627e-08
3.000000000000002109e-01,1.152545952433542853e+00,8.590131336859570865e+00,-5.790256681980338336e-10,0.000000000000000000e+00,1.108334598160120543e-08
3.025000000000002132e-01,1.174066141148809805e+00,8.669058334228846974e+00,4.474111494267107546e-10,0.000000000000000000e+00,1.190532664462950717e-08
3.050000000000002154e-01,1.195783526366485772e+00,8.747772126528939651e+00,3.563707032092741923e-10,0.000000000000000000e+00,1.281951237989834320e-08
3.075000000000002176e-01,1.217697574912889324e+00,8.826272444386647820e+00,-1.678435015023854927e-11,0.000000000000000000e+00,1.383034289536788507e-08
3.100000000000002198e-01,1.239807752959965814e+00,8.904559050129483566e+00,8.602548847414820166e-10,0.000000000000000000e+00,1.494352229395659158e-08
3.125000000000002220e-01,1.262113526102126126e+00,8.982631733742111990e+00,-3.710143934203722467e-10,0.000000000000000000e+00,1.615584537136292404e-08
3.150000000000002243e-01,1.284614359423249530e+00,9.060490309248400820e+00,-6.598199747228859073e-12,0.000000000000000000e+00,1.747954318584398998e-08
3.175000000000002265e-01,1.307309717554863138e+00,9.138134611490395187e+00,1.810588307157280883e-09,0.000000000000000000e+00,1.891382367517729073e-08
3.200000000000002287e-01,1.330199064726479419e+00,9.215564493275108404e+00,2.388934796035021217e-09,0.000000000000000000e+00,2.045312302166735830e-08
3.225000000000002309e-01,1.353281864809005031e+00,9.292779822845034232e+00,2.824381009436350727e-09,0.000000000000000000e+00,2.209836523882985413e-08
3.250000000000002331e-01,1.376557581351989468e+00,9.369780481646110104e+00,5.308645292354808848e-09,0.000000000000000000e+00,2.384629762371198540e-08
