Time (s),Altitude (m),Velocity (m/s),Angular Velocity (rad/s),Fin Cant Angle (deg),Angular Position (deg)
0.000000000000000000e+00,1.000000000000000000e+01,0.000000000000000000e+00,0.000000000000000000e+00,0.000000000000000000e+00,0.000000000000000000e+00
2.500000000000000052e-03,9.999986426757757840e+00,-1.929407306000266442e-02,0.000000000000000000e+00,0.000000000000000000e+00,0.000000000000000000e+00
5.000000000000000104e-03,9.999930505828409366e+00,-2.821726033907889092e-02,0.000000000000000000e+00,0.000000000000000000e+00,0.000000000000000000e+00
7.499999999999999722e-03,9.999858165140416588e+00,-2.676830412172730850e-02,0.000000000000000000e+00,0.000000000000000000e+00,0.000000000000000000e+00
1.000000000000000021e-02,9.999795335373194760e+00,-1.494663939163034215e-02,0.000000000000000000e+00,0.000000000000000000e+00,0.000000000000000000e+00
1.250000000000000069e-02,9.999767948618842439e+00,7.248298990665475242e-03,0.000000000000000000e+00,0.000000000000000000e+00,0.000000000000000000e+00
1.500000000000000118e-02,9.999801938382571365e+00,3.981707613192866924e-02,0.000000000000000000e+00,0.000000000000000000e+00,0.000000000000000000e+00
1.750000000000000167e-02,9.999923239581200107e+00,8.276025404019823895e-02,0.000000000000000000e+00,0.000000000000000000e+00,0.000000000000000000e+00
2.000000000000000042e-02,1.000015778852959336e+01,1.360783808564248742e-01,0.000000000000000000e+00,0.000000000000000000e+00,0.000000000000000000e+00
2.249999999999999917e-02,1.000053152289287972e+01,1.997719709073272620e-01,0.000000000000000000e+00,0.000000000000000000e+00,0.000000000000000000e+00
2.499999999999999792e-02,1.000107120113320214e+01,2.706712652696044996e-01,0.000000000000000000e+00,0.000000000000000000e+00,0.000000000000000000e+00
2.749999999999999667e-02,1.000178836450755604e+01,3.421705266485746133e-01,0.000000000000000000e+00,0.000000000000000000e+00,0.000000000000000000e+00
2.999999999999999542e-02,1.000268451307922568e+01,4.140872482998184667e-01,0.000000000000000000e+00,0.000000000000000000e+00,0.000000000000000000e+00
3.249999999999999417e-02,1.000376069034930993e+01,4.864212541420201985e-01,0.000000000000000000e+00,0.000000000000000000e+00,0.000000000000000000e+00
3.499999999999999639e-02,1.000501793949548457e+01,5.591725695520000095e-01,0.000000000000000000e+00,0.000000000000000000e+00,0.000000000000000000e+00
3.749999999999999861e-02,1.000645730384740695e+01,6.323412599833512227e-01,0.000000000000000000e+00,0.000000000000000000e+00,0.000000000000000000e+00
4.000000000000000083e-02,1.000807982686803577e+01,7.059273620503853097e-01,0.000000000000000000e+00,0.000000000000000000e+00,0.000000000000000000e+00
4.250000000000000305e-02,1.000988655210512235e+01,7.799309043462271385e-01,0.000000000000000000e+00,0.000000000000000000e+00,0.000000000000000000e+00
4.500000000000000527e-02,1.001187852317456972e+01,8.543519114722446517e-01,0.000000000000000000e+00,0.000000000000000000e+00,0.000000000000000000e+00
4.750000000000000749e-02,1.001405678375193276e+01,9.291904057356930036e-01,0.000000000000000000e+00,0.000000000000000000e+00,0.000000000000000000e+00
5.000000000000000971e-02,1.001642237756738218e+01,1.004446407956501419e+00,0.000000000000000000e+00,0.000000000000000000e+00,0.000000000000000000e+00
5.250000000000001193e-02,1.001897634838400997e+01,1.080119791635863136e+00,0.000000000000000000e+00,0.000000000000000000e+00,0.000000000000000000e+00
5.500000000000001416e-02,1.002171973956746065e+01,1.156210763039682954e+00,0.000000000000000000e+00,0.000000000000000000e+00,0.000000000000000000e+00
5.750000000000001638e-02,1.002465359562535063e+01,1.232720319075043980e+00,0.000000000000000000e+00,0.000000000000000000e+00,0.000000000000000000e+00
6.000000000000001860e-02,1.002777896336296237e+01,1.309647855533059735e+00,0.000000000000000000e+00,0.000000000000000000e+00,0.000000000000000000e+00
6.250000000000001388e-02,1.003109688650887144e+01,1.386991956774678458e+00,0.000000000000000000e+00,0.000000000000000000e+00,0.000000000000000000e+00
6.500000000000001610e-02,1.003460840630385498e+01,1.464752938390127657e+00,0.000000000000000000e+00,0.000000000000000000e+00,0.000000000000000000e+00
6.750000000000001832e-02,1.003831456542155465e+01,1.542931369462350322e+00,0.000000000000000000e+00,0.000000000000000000e+00,0.000000000000000000e+00
7.000000000000002054e-02,1.004221640768093415e+01,1.621527511901464713e+00,0.000000000000000000e+00,0.000000000000000000e+00,0.000000000000000000e+00
7.250000000000002276e-02,1.004631497747127078e+01,1.700541516485937876e+00,0.000000000000000000e+00,0.000000000000000000e+00,0.000000000000000000e+00
7.500000000000002498e-02,1.005061131951515740e+01,1.779973477127283710e+00,0.000000000000000000e+00,0.000000000000000000e+00,0.000000000000000000e+00
7.750000000000002720e-02,1.005510647874684338e+01,1.859823457722840079e+00,0.000000000000000000e+00,0.000000000000000000e+00,0.000000000000000000e+00
8.000000000000002942e-02,1.005980150024765507e+01,1.940091505821248230e+00,0.000000000000000000e+00,0.000000000000000000e+00,0.000000000000000000e+00
8.250000000000003164e-02,1.006469742921095722e+01,2.020777659994646758e+00,0.000000000000000000e+00,0.000000000000000000e+00,0.000000000000000000e+00
8.500000000000003386e-02,1.006979531092251356e+01,2.101881953919351620e+00,0.000000000000000000e+00,0.000000000000000000e+00,0.000000000000000000e+00
8.750000000000003608e-02,1.007509619074971674e+01,2.183404417797319308e+00,0.000000000000000000e+00,0.000000000000000000e+00,0.000000000000000000e+00
9.000000000000003830e-02,1.008060111413399440e+01,2.265345079936181616e+00,0.000000000000000000e+00,0.000000000000000000e+00,0.000000000000000000e+00
9.250000000000004052e-02,1.008631112658662587e+01,2.347703967448213636e+00,0.000000000000000000e+00,0.000000000000000000e+00,0.000000000000000000e+00
9.500000000000004274e-02,1.009222727368607408e+01,2.430481106655330681e+00,0.000000000000000000e+00,0.000000000000000000e+00,0.000000000000000000e+00
9.750000000000004496e-02,1.009835060107619675e+01,2.513676523323849388e+00,0.000000000000000000e+00,0.000000000000000000e+00,0.000000000000000000e+00
1.000000000000000472e-01,1.010468215446497098e+01,2.597290242798986348e+00,0.000000000000000000e+00,0.000000000000000000e+00,0.000000000000000000e+00
1.025000000000000494e-01,1.011122297959164484e+01,2.681321819813161866e+00,0.000000000000000000e+00,0.000000000000000000e+00,0.000000000000000000e+00
1.050000000000000516e-01,1.011797412058066925e+01,2.765770749329698575e+00,-4.451098339516553094e-16,0.000000000000000000e+00,0.000000000000000000e+00
1.075000000000000538e-01,1.012493662078258616e+01,2.850636977720781395e+00,-1.712028762302560895e-15,0.000000000000000000e+00,0.000000000000000000e+00
1.100000000000000561e-01,1.013211152341495591e+01,2.935920453546907005e+00,-3.352021406337621077e-15,0.000000000000000000e+00,0.000000000000000000e+00
1.125000000000000583e-01,1.013949987156857624e+01,3.021621128847547411e+00,-3.352021406337621077e-15,0.000000000000000000e+00,0.000000000000000000e+00
1.150000000000000605e-01,1.014710270821705329e+01,3.107738960808318573e+00,-1.443623259176292527e-14,0.000000000000000000e+00,-6.864340370649073732e-16
1.175000000000000627e-01,1.015492107622985962e+01,3.194273911546612332e+00,-3.486438008794462086e-14,0.000000000000000000e+00,-4.762914444160651217e-17
1.200000000000000649e-01,1.016295601838612228e+01,3.281225951662258389e+00,-3.478712207177894283e-14,0.000000000000000000e+00,7.959432575893229149e-15
1.225000000000000672e-01,1.017120857739796769e+01,3.368595064171084008e+00,-3.388482991855815597e-14,0.000000000000000000e+00,2.989671992942108299e-14
1.250000000000000555e-01,1.017967979594182104e+01,3.456381244219226989e+00,1.957843415253826700e-15,0.000000000000000000e+00,6.693150838839824625e-14
1.275000000000000577e-01,1.018837071669019601e+01,3.544584501786755215e+00,1.411856782347780162e-13,0.000000000000000000e+00,1.155057644427700918e-13
1.300000000000000600e-01,1.019728238234931261e+01,3.633204863302701426e+00,1.498771145342870755e-13,0.000000000000000000e+00,1.737917567008713058e-13
1.325000000000000622e-01,1.020641583570206379e+01,3.722242374315553715e+00,3.265271661886827966e-14,0.000000000000000000e+00,2.399453315157978930e-13
1.350000000000000644e-01,1.021577211965680831e+01,3.811697101479151417e+00,8.168310600596476790e-14,0.000000000000000000e+00,3.153470843807675425e-13
1.375000000000000666e-01,1.022535227730131346e+01,3.901569134660282323e+00,1.966711139553272214e-13,0.000000000000000000e+00,3.952777127409325600e-13
1.400000000000000688e-01,1.023515735196193610e+01,3.991858588969886323e+00,2.615674481013327757e-13,0.000000000000000000e+00,4.760946508065583520e-13
1.425000000000000711e-01,1.024518838726781667e+01,4.082565606685490067e+00,-3.161590488107277838e-13,0.000000000000000000e+00,5.511207180317677066e-13
1.450000000000000733e-01,1.025544642721981070e+01,4.173690359034787356e+00,-4.588884764375059166e-14,0.000000000000000000e+00,6.209509754258090443e-13
1.475000000000000755e-01,1.026593251626362324e+01,4.265233047986369819e+00,1.567549269315709399e-13,0.000000000000000000e+00,6.742507987624405019e-13
1.500000000000000777e-01,1.027664769936814615e+01,4.357193907293137158e+00,-1.393028472649395492e-13,0.000000000000000000e+00,6.742507987624405019e-13
1.525000000000000799e-01,1.028759302208305115e+01,4.449572767979683263e+00,-4.011124539417227118e-13,0.000000000000000000e+00,6.742507987624405019e-13
1.550000000000000822e-01,1.029876952903393317e+01,4.542369275792252914e+00,-4.636972908563849793e-13,0.000000000000000000e+00,6.742507987624405019e-13
1.575000000000000844e-01,1.031017826433499351e+01,4.635583424360787852e+00,-8.285157217029979718e-13,0.000000000000000000e+00,6.742507987624405019e-13
1.600000000000000866e-01,1.032182027208420294e+01,4.729215206874926913e+00,-1.470008499783943348e-12,0.000000000000000000e+00,6.150556713813924217e-13
1.625000000000000888e-01,1.033369659636174021e+01,4.823264615518515264e+00,-1.030013879102999799e-12,0.000000000000000000e+00,5.214590892927919603e-13
1.650000000000000910e-01,1.034580828122912877e+01,4.917731643799755581e+00,-7.183447632055859403e-13,0.000000000000000000e+00,3.982436601545001121e-13
1.675000000000000933e-01,1.035815637073071649e+01,5.012616283182547150e+00,-1.126330734941032088e-12,0.000000000000000000e+00,2.478305901160734454e-13
1.700000000000000955e-01,1.037074190888960601e+01,5.107918525513271746e+00,-1.453911227992398276e-12,0.000000000000000000e+00,6.587234179804097664e-14
1.725000000000000977e-01,1.038356593970838304e+01,5.203638361292385994e+00,-1.664335442962410107e-12,0.000000000000000000e+00,-1.489007742411228468e-13
1.750000000000000999e-01,1.039662950716463286e+01,5.299775780908801970e+00,-1.769690258935101628e-12,0.000000000000000000e+00,-3.976060460993233451e-13
1.775000000000001021e-01,1.040993365521217306e+01,5.396330774261473451e+00,-1.900078006783867111e-12,0.000000000000000000e+00,-6.689350211970294910e-13
1.800000000000001044e-01,1.042347942777950642e+01,5.493303330988066335e+00,-2.084566904278017074e-12,0.000000000000000000e+00,-9.247450265741532091e-13
1.825000000000001066e-01,1.043726786876856139e+01,5.590693439823446909e+00,-2.346456536560907364e-12,0.000000000000000000e+00,-1.152765304152228225e-12
1.850000000000001088e-01,1.045130002205300990e+01,5.688501089212216755e+00,-1.945929289780592244e-12,0.000000000000000000e+00,-1.319500970290574349e-12
1.875000000000001110e-01,1.046557693147736146e+01,5.786726267117604294e+00,-1.703518865612904348e-12,0.000000000000000000e+00,-1.456600307559700801e-12
1.900000000000001132e-01,1.048009964085575874e+01,5.885368961023871748e+00,-2.215893947863943817e-12,0.000000000000000000e+00,-1.555571682738619924e-12
1.925000000000001155e-01,1.049486919397078744e+01,5.984429157938843780e+00,-8.648874149598665996e-13,0.000000000000000000e+00,-1.598504636217476408e-12
1.950000000000001177e-01,1.050988663457228078e+01,6.083906844396581803e+00,-3.115826192694787429e-12,0.000000000000000000e+00,-1.623318975185482134e-12
1.975000000000001199e-01,1.052515300637613826e+01,6.183802006460275003e+00,-3.390518822568920324e-12,0.000000000000000000e+00,-1.562339675350651878e-12
2.000000000000001221e-01,1.054066935306296493e+01,6.284114629215324932e+00,-5.728412806346329007e-14,0.000000000000000000e+00,-1.375099161727629987e-12
2.025000000000001243e-01,1.055643671824790175e+01,6.384844375824570761e+00,3.136996387125520228e-12,0.000000000000000000e+00,-1.132059581460802299e-12
2.050000000000001266e-01,1.057245614438273051e+01,6.485990938473720213e+00,3.205168555198584313e-12,0.000000000000000000e+00,-8.982197403802355556e-13
2.075000000000001288e-01,1.058872867352948255e+01,6.587554353159034370e+00,1.130757574370663111e-12,0.000000000000000000e+00,-6.838741776841686548e-13
2.100000000000001310e-01,1.060525534783727863e+01,6.689534650248848635e+00,-5.121421408615519665e-12,0.000000000000000000e+00,-4.540804107270825538e-13
2.125000000000001332e-01,1.062203727822273436e+01,6.791812049644223137e+00,-1.304505404155109559e-11,0.000000000000000000e+00,-9.655694253138544233e-14
2.150000000000001354e-01,1.063907482482509970e+01,6.893900730750321948e+00,-1.562875868078819975e-11,0.000000000000000000e+00,5.536405063498058650e-13
2.175000000000001377e-01,1.065636745538001229e+01,6.995746798623261320e+00,-1.589686491007169074e-11,0.000000000000000000e+00,1.581060091932906725e-12
2.200000000000001399e-01,1.067391456333279542e+01,7.097350213579504796e+00,-1.583794763062757852e-11,0.000000000000000000e+00,3.056321344558738902e-12
2.225000000000001421e-01,1.069171554202878838e+01,7.198710934693171026e+00,-2.314746341475764686e-11,0.000000000000000000e+00,4.950487110896661633e-12
2.250000000000001443e-01,1.070976978471034435e+01,7.299828919978805786e+00,-2.544480138618383243e-11,0.000000000000000000e+00,7.446441376216977269e-12
2.275000000000001465e-01,1.072807668451428320e+01,7.400704126554190410e+00,-2.298360060245761365e-11,0.000000000000000000e+00,1.061454826532941415e-11
2.300000000000001488e-01,1.074663563446973669e+01,7.501336510785577616e+00,-6.787363159544069352e-12,0.000000000000000000e+00,1.447184406386947241e-11
2.325000000000001510e-01,1.076544602749634905e+01,7.601726028417657766e+00,1.396189047891058951e-11,0.000000000000000000e+00,1.885650833265139788e-11
2.350000000000001532e-01,1.078450725640279373e+01,7.701872634690129615e+00,1.037679969212181047e-11,0.000000000000000000e+00,2.363977222040085522e-11
2.375000000000001554e-01,1.080381871388557080e+01,7.801776284441568343e+00,-6.953361325090608717e-12,0.000000000000000000e+00,2.887004855107588099e-11
2.400000000000001577e-01,1.082337979252806548e+01,7.901436932202087426e+00,-1.879825674621923132e-11,0.000000000000000000e+00,3.471868988988686449e-11
2.425000000000001599e-01,1.084318988479982160e+01,8.000854532276569842e+00,2.715406740720197417e-11,0.000000000000000000e+00,4.129931510718528274e-11
2.450000000000001621e-01,1.086324838305603180e+01,8.100029038818670202e+00,5.277903222511902717e-12,0.000000000000000000e+00,4.825590339216737865e-11
2.475000000000001643e-01,1.088355467953718936e+01,8.198960405896517756e+00,1.680262264627883720e-11,0.000000000000000000e+00,5.584532112408849142e-11
2.500000000000001665e-01,1.090410816636891944e+01,8.297648587550987997e+00,3.878846487650222066e-11,0.000000000000000000e+00,6.401333596665326743e-11
2.525000000000001688e-01,1.092490823552746448e+01,8.396093145300607574e+00,3.308964124885609026e-11,0.000000000000000000e+00,7.257838104684887219e-11
2.550000000000001710e-01,1.094595427761358764e+01,8.494293974573173145e+00,2.171221892385330385e-11,0.000000000000000000e+00,8.160407339660603958e-11
2.575000000000001732e-01,1.096724568357339180e+01,8.592251577988863076e+00,6.405708141524204186e-11,0.000000000000000000e+00,9.138005541228524612e-11
2.600000000000001754e-01,1.098878184566077643e+01,8.689966551526119076e+00,7.433206051270121665e-11,0.000000000000000000e+00,1.017617940200088732e-10
2.625000000000001776e-01,1.101056215767560964e+01,8.787439586591403895e+00,5.242563636402877949e-11,0.000000000000000000e+00,1.126160189643182755e-10
2.650000000000001799e-01,1.103258601518629689e+01,8.884671447052426174e+00,8.380560859277118864e-11,0.000000000000000000e+00,1.241091011456841769e-10
2.675000000000001821e-01,1.105485281572601863e+01,8.981663076012015523e+00,9.704398078873805784e-11,0.000000000000000000e+00,1.361793114120390436e-10
2.700000000000001843e-01,1.107736195946031188e+01,9.078416219951924049e+00,1.182704446143001697e-10,0.000000000000000000e+00,1.486916942405402330e-10
2.725000000000001865e-01,1.110011285143026427e+01,9.174932868487038817e+00,1.482612006215480957e-10,0.000000000000000000e+00,1.612822019539831435e-10
2.750000000000001887e-01,1.112310490134308161e+01,9.271214478534171022e+00,2.045664990260332603e-10,0.000000000000000000e+00,1.737752216513896563e-10
2.775000000000001910e-01,1.114633752224278673e+01,9.367261971088035821e+00,2.207938113268541413e-10,0.000000000000000000e+00,1.856339878365124416e-10
2.800000000000001932e-01,1.116981012917944582e+01,9.463075747240941027e+00,3.307416076594038696e-10,0.000000000000000000e+00,1.968748060298160190e-10
2.825000000000001954e-01,1.119352213791819750e+01,9.558655703741756327e+00,2.969975360756301392e-10,0.000000000000000000e+00,2.065855236308598808e-10
2.850000000000001976e-01,1.121747296368691593e+01,9.654001248086306219e+00,3.443878679978358593e-10,0.000000000000000000e+00,2.147348357444873382e-10
2.875000000000001998e-01,1.124166201996134085e+01,9.749111313143814073e+00,2.936295749029341987e-10,0.000000000000000000e+00,2.212288030885025178e-10
2.900000000000002021e-01,1.126608871728652517e+01,9.843984371334881800e+00,2.161163664535997482e-10,0.000000000000000000e+00,2.261901435631628962e-10
2.925000000000002043e-01,1.129075246213348116e+01,9.938618448383619963e+00,1.121995996922295518e-10,0.000000000000000000e+00,2.300403505726785120e-10
2.950000000000002065e-01,1.131565265578998591e+01,1.003301113731031791e+01,5.515342128693938582e-11,0.000000000000000000e+00,2.331836817738889475e-10
2.975000000000002087e-01,1.134078869326967798e+01,1.012715972955688137e+01,2.430986770056218149e-11,0.000000000000000000e+00,2.362420863459333223e-10
3.000000000000002109e-01,1.136615996280051633e+01,1.022106170860158159e+01,1.775732323445705549e-10,0.000000000000000000e+00,2.391197411821181547e-10
3.025000000000002132e-01,1.139176584684465254e+01,1.031472014324802089e+01,2.209010042135865828e-10,0.000000000000000000e+00,2.411958924087811154e-10
3.050000000000002154e-01,1.141760574113172311e+01,1.040813868112355323e+01,3.534208562073841404e-10,0.000000000000000000e+00,2.424568906590293828e-10
3.075000000000002176e-01,1.144367904511630130e+01,1.050131581755537979e+01,4.299743448267604981e-10,0.000000000000000000e+00,2.421194002287952131e-10
3.100000000000002198e-01,1.146998515437282151e+01,1.059424986707013971e+01,5.360649868295789492e-10,0.000000000000000000e+00,2.398365398253974386e-10
3.125000000000002220e-01,1.149652346019229476e+01,1.068693915114614157e+01,7.201969973118750051e-10,0.000000000000000000e+00,2.349098837061547153e-10
3.150000000000002243e-01,1.152329334976232111e+01,1.077938217120661157e+01,7.470832987917173094e-10,0.000000000000000000e+00,2.267373904661738315e-10
3.175000000000002265e-01,1.155029420663154482e+01,1.087157761513230980e+01,8.333981378018631889e-10,0.000000000000000000e+00,2.150568035878782448e-10
3.200000000000002287e-01,1.157752541117085343e+01,1.096352434866061110e+01,1.045137537353837612e-09,0.000000000000000000e+00,1.992002350261112042e-10
3.225000000000002309e-01,1.160498634101332449e+01,1.105522140720903046e+01,1.120490166814807728e-09,0.000000000000000000e+00,1.782434518309805817e-10
3.250000000000002331e-01,1.163267637147395206e+01,1.114666798810248771e+01,1.179036462307787631e-09,0.000000000000000000e+00,1.518540691355685572e-10
3.275000000000002354e-01,1.166059487595016897e+01,1.123786344318384600e+01,1.253230988217705459e-09,0.000000000000000000e+00,1.191023009535055329e-10
