Time (s),Altitude (m),Velocity (m/s),Angular Velocity (rad/s),Fin Cant Angle (deg)
0.000000000000000000e+00,1.000000000000000000e+01,0.000000000000000000e+00,0.000000000000000000e+00,0.000000000000000000e+00
1.000000000000000021e-03,9.999997797171102931e+00,-8.962182445876416478e-03,0.000000000000000000e+00,0.000000000000000000e+00
2.000000000000000042e-03,9.999987008914887454e+00,-1.626524365135640499e-02,0.000000000000000000e+00,0.000000000000000000e+00
3.000000000000000062e-03,9.999969294423717514e+00,-2.190887041237626551e-02,0.000000000000000000e+00,0.000000000000000000e+00
4.000000000000000083e-03,9.999946313140251064e+00,-2.589302655990795288e-02,0.000000000000000000e+00,0.000000000000000000e+00
5.000000000000000104e-03,9.999919724543312682e+00,-2.821767592637682703e-02,0.000000000000000000e+00,0.000000000000000000e+00
6.000000000000000125e-03,9.999891188147898902e+00,-2.888278234607666653e-02,0.000000000000000000e+00,0.000000000000000000e+00
7.000000000000000146e-03,9.999862363505165774e+00,-2.788830965434107440e-02,0.000000000000000000e+00,0.000000000000000000e+00
8.000000000000000167e-03,9.999834910202439531e+00,-2.523422168593386292e-02,0.000000000000000000e+00,0.000000000000000000e+00
9.000000000000001055e-03,9.999810487863207698e+00,-2.092048227317459819e-02,0.000000000000000000e+00,0.000000000000000000e+00
1.000000000000000194e-02,9.999790756147129756e+00,-1.494705524438602780e-02,0.000000000000000000e+00,0.000000000000000000e+00
1.100000000000000283e-02,9.999777374750037140e+00,-7.313904423342370252e-03,0.000000000000000000e+00,0.000000000000000000e+00
1.200000000000000372e-02,9.999772003403936793e+00,1.979006369483196810e-03,0.000000000000000000e+00,0.000000000000000000e+00
1.300000000000000461e-02,9.999776301877016493e+00,1.293171331292429505e-02,0.000000000000000000e+00,0.000000000000000000e+00
1.400000000000000550e-02,9.999791929973641302e+00,2.554425257734891860e-02,0.000000000000000000e+00,0.000000000000000000e+00
1.500000000000000638e-02,9.999820547534341131e+00,3.981666031214274593e-02,0.000000000000000000e+00,0.000000000000000000e+00
1.600000000000000727e-02,9.999863814435785869e+00,5.574897262735915154e-02,0.000000000000000000e+00,0.000000000000000000e+00
1.700000000000000816e-02,9.999923390590740979e+00,7.334122556838490459e-02,0.000000000000000000e+00,0.000000000000000000e+00
1.800000000000000905e-02,1.000000093594799289e+01,9.259345508248520429e-02,0.000000000000000000e+00,0.000000000000000000e+00
1.900000000000000994e-02,1.000009811049224417e+01,1.135056969761290002e-01,0.000000000000000000e+00,0.000000000000000000e+00
2.000000000000001082e-02,1.000021657424395904e+01,1.360779868621097843e-01,0.000000000000000000e+00,0.000000000000000000e+00
2.100000000000001171e-02,1.000035798725915370e+01,1.603103600956745090e-01,0.000000000000000000e+00,0.000000000000000000e+00
2.200000000000001260e-02,1.000052400962912458e+01,1.862028516991825200e-01,0.000000000000000000e+00,0.000000000000000000e+00
2.300000000000001349e-02,1.000071630148009127e+01,2.137554962752615528e-01,0.000000000000000000e+00,0.000000000000000000e+00
2.400000000000001438e-02,1.000093650305573867e+01,2.421716222487302062e-01,0.000000000000000000e+00,0.000000000000000000e+00
2.500000000000001527e-02,1.000118513592335923e+01,2.706545359543935936e-01,0.000000000000000000e+00,0.000000000000000000e+00
2.600000000000001615e-02,1.000146226687087037e+01,2.992042382168456638e-01,0.000000000000000000e+00,0.000000000000000000e+00
2.700000000000001704e-02,1.000176796268693558e+01,3.278207295229553231e-01,0.000000000000000000e+00,0.000000000000000000e+00
2.800000000000001793e-02,1.000210229016063046e+01,3.565040100204749374e-01,0.000000000000000000e+00,0.000000000000000000e+00
2.900000000000001882e-02,1.000246531608110168e+01,3.852540795207942681e-01,0.000000000000000000e+00,0.000000000000000000e+00
3.000000000000001971e-02,1.000285710723723476e+01,4.140709375066230491e-01,0.000000000000000000e+00,0.000000000000000000e+00
3.100000000000002059e-02,1.000327773041732549e+01,4.429545831454297922e-01,0.000000000000000000e+00,0.000000000000000000e+00
3.200000000000002148e-02,1.000372725240877259e+01,4.719050153094884181e-01,0.000000000000000000e+00,0.000000000000000000e+00
3.300000000000002237e-02,1.000420573999778462e+01,5.009222326033803130e-01,0.000000000000000000e+00,0.000000000000000000e+00
3.400000000000002326e-02,1.000471325996912419e+01,5.300062333997548336e-01,0.000000000000000000e+00,0.000000000000000000e+00
3.500000000000002415e-02,1.000524987910588237e+01,5.591570158840626359e-01,0.000000000000000000e+00,0.000000000000000000e+00
3.600000000000002504e-02,1.000581566418930635e+01,5.883745781088304261e-01,0.000000000000000000e+00,0.000000000000000000e+00
3.700000000000002592e-02,1.000641068199867689e+01,6.176589180578404559e-01,0.000000000000000000e+00,0.000000000000000000e+00
3.800000000000002681e-02,1.000703499931126039e+01,6.470100337203107399e-01,0.000000000000000000e+00,0.000000000000000000e+00
3.900000000000002770e-02,1.000768868290233016e+01,6.764279231748425714e-01,0.000000000000000000e+00,0.000000000000000000e+00
4.000000000000002859e-02,1.000837179954527478e+01,7.059125846825263784e-01,0.000000000000000000e+00,0.000000000000000000e+00
4.100000000000002948e-02,1.000908441601180421e+01,7.354640167881831836e-01,0.000000000000000000e+00,0.000000000000000000e+00
4.200000000000003036e-02,1.000982659907226058e+01,7.650822184272487725e-01,0.000000000000000000e+00,0.000000000000000000e+00
4.300000000000003125e-02,1.001059841549602858e+01,7.947671890378804616e-01,0.000000000000000000e+00,0.000000000000000000e+00
4.400000000000003214e-02,1.001139993205206657e+01,8.245189286810351570e-01,0.000000000000000000e+00,0.000000000000000000e+00
4.500000000000003303e-02,1.001223121550955497e+01,8.543374381541348761e-01,0.000000000000000000e+00,0.000000000000000000e+00
4.600000000000003392e-02,1.001309233263865828e+01,8.842227191040805678e-01,0.000000000000000000e+00,0.000000000000000000e+00
4.700000000000003481e-02,1.001398335021139729e+01,9.141747741356793799e-01,0.000000000000000000e+00,0.000000000000000000e+00
4.800000000000003569e-02,1.001490433500262967e+01,9.441936069126534159e-01,0.000000000000000000e+00,0.000000000000000000e+00
4.900000000000003658e-02,1.001585535379112990e+01,9.742792222490295195e-01,0.000000000000000000e+00,0.000000000000000000e+00
5.000000000000003747e-02,1.001683647336076177e+01,1.004431626189078441e+00,0.000000000000000000e+00,0.000000000000000000e+00
5.100000000000003836e-02,1.001784776050171111e+01,1.034650824351386555e+00,0.000000000000000000e+00,0.000000000000000000e+00
5.200000000000003925e-02,1.001888928200852469e+01,1.064936817932608637e+00,0.000000000000000000e+00,0.000000000000000000e+00
5.300000000000004013e-02,1.001996110467679912e+01,1.095289607724391434e+00,0.000000000000000000e+00,0.000000000000000000e+00
5.400000000000004102e-02,1.002106329530292506e+01,1.125709194509638467e+00,0.000000000000000000e+00,0.000000000000000000e+00
5.500000000000004191e-02,1.002219592068406939e+01,1.156195579062335055e+00,0.000000000000000000e+00,0.000000000000000000e+00
5.600000000000004280e-02,1.002335904761817531e+01,1.186748762147383562e+00,0.000000000000000000e+00,0.000000000000000000e+00
5.700000000000004369e-02,1.002455274290394449e+01,1.217368744520447743e+00,0.000000000000000000e+00,0.000000000000000000e+00
5.800000000000004458e-02,1.002577707334083534e+01,1.248055526927806191e+00,0.000000000000000000e+00,0.000000000000000000e+00
5.900000000000004546e-02,1.002703210572904879e+01,1.278809110106212232e+00,0.000000000000000000e+00,0.000000000000000000e+00
6.000000000000004635e-02,1.002831790686952118e+01,1.309629494782762915e+00,0.000000000000000000e+00,0.000000000000000000e+00
6.100000000000004724e-02,1.002963454356391360e+01,1.340516681674773336e+00,0.000000000000000000e+00,0.000000000000000000e+00
6.200000000000004813e-02,1.003098208261460123e+01,1.371470671489656512e+00,0.000000000000000000e+00,0.000000000000000000e+00
6.300000000000004208e-02,1.003236059082466625e+01,1.402491464924811027e+00,0.000000000000000000e+00,0.000000000000000000e+00
6.400000000000004297e-02,1.003377013499788362e+01,1.433579062667512005e+00,0.000000000000000000e+00,0.000000000000000000e+00
6.500000000000004385e-02,1.003521078193871574e+01,1.464733465394807199e+00,0.000000000000000000e+00,0.000000000000000000e+00
6.600000000000004474e-02,1.003668259845229827e+01,1.495954673773418619e+00,0.000000000000000000e+00,0.000000000000000000e+00
6.700000000000004563e-02,1.003818565134442942e+01,1.527242688459647502e+00,0.000000000000000000e+00,0.000000000000000000e+00
6.800000000000004652e-02,1.003972000742156467e+01,1.558597510099283490e+00,0.000000000000000000e+00,0.000000000000000000e+00
6.900000000000004741e-02,1.004128573349080256e+01,1.590019139327517372e+00,0.000000000000000000e+00,0.000000000000000000e+00
7.000000000000004829e-02,1.004288289635987219e+01,1.621507576768857151e+00,0.000000000000000000e+00,0.000000000000000000e+00
7.100000000000004918e-02,1.004451156283712443e+01,1.653062823037048101e+00,0.000000000000000000e+00,0.000000000000000000e+00
7.200000000000005007e-02,1.004617179973152474e+01,1.684684878734994617e+00,0.000000000000000000e+00,0.000000000000000000e+00
7.300000000000005096e-02,1.004786367385263546e+01,1.716373744454685824e+00,0.000000000000000000e+00,0.000000000000000000e+00
7.400000000000005185e-02,1.004958725201061220e+01,1.748129420777123189e+00,0.000000000000000000e+00,0.000000000000000000e+00
7.500000000000005274e-02,1.005134260101618615e+01,1.779951908272251693e+00,0.000000000000000000e+00,0.000000000000000000e+00
7.600000000000005362e-02,1.005312978768065513e+01,1.811841207498891881e+00,0.000000000000000000e+00,0.000000000000000000e+00
7.700000000000005451e-02,1.005494887881587651e+01,1.843797319004675472e+00,0.000000000000000000e+00,0.000000000000000000e+00
7.800000000000005540e-02,1.005679994123424947e+01,1.875820243325982295e+00,0.000000000000000000e+00,0.000000000000000000e+00
7.900000000000005629e-02,1.005868304174870964e+01,1.907909980987879228e+00,0.000000000000000000e+00,0.000000000000000000e+00
8.000000000000005718e-02,1.006059824717271489e+01,1.940066532504061358e+00,0.000000000000000000e+00,0.000000000000000000e+00
8.100000000000005806e-02,1.006254562432023114e+01,1.972289898376795358e+00,0.000000000000000000e+00,0.000000000000000000e+00
8.200000000000005895e-02,1.006452524000572701e+01,2.004580079096862644e+00,0.000000000000000000e+00,0.000000000000000000e+00
8.300000000000005984e-02,1.006653716104415963e+01,2.036937075143506970e+00,0.000000000000000000e+00,0.000000000000000000e+00
8.400000000000006073e-02,1.006858145425096041e+01,2.069360886984381143e+00,0.000000000000000000e+00,0.000000000000000000e+00
8.500000000000006162e-02,1.007065818644202793e+01,2.101851515075495946e+00,0.000000000000000000e+00,0.000000000000000000e+00
8.600000000000006251e-02,1.007276742443371198e+01,2.134408959861171073e+00,0.000000000000000000e+00,0.000000000000000000e+00
8.700000000000006339e-02,1.007490923504280467e+01,2.167033221773986718e+00,0.000000000000000000e+00,0.000000000000000000e+00
8.800000000000006428e-02,1.007708368508652974e+01,2.199724301234736057e+00,0.000000000000000000e+00,0.000000000000000000e+00
8.900000000000006517e-02,1.007929084138252662e+01,2.232482198652379957e+00,0.000000000000000000e+00,0.000000000000000000e+00
9.000000000000006606e-02,1.008153077074884330e+01,2.265306914424002116e+00,0.000000000000000000e+00,0.000000000000000000e+00
9.100000000000006695e-02,1.008380354000392032e+01,2.298198448934765104e+00,0.000000000000000000e+00,0.000000000000000000e+00
9.200000000000006783e-02,1.008610921596658017e+01,2.331156802557868613e+00,0.000000000000000000e+00,0.000000000000000000e+00
9.300000000000006872e-02,1.008844786545601835e+01,2.364181975654506829e+00,0.000000000000000000e+00,0.000000000000000000e+00
9.400000000000006961e-02,1.009081955529178742e+01,2.397273968573828018e+00,0.000000000000000000e+00,0.000000000000000000e+00
9.500000000000007050e-02,1.009322435229378634e+01,2.430432781652895446e+00,0.000000000000000000e+00,0.000000000000000000e+00
9.600000000000007139e-02,1.009566232328224800e+01,2.463658415216647413e+00,0.000000000000000000e+00,0.000000000000000000e+00
9.700000000000007228e-02,1.009813353507772860e+01,2.496950869577860388e+00,0.000000000000000000e+00,0.000000000000000000e+00
9.800000000000007316e-02,1.010063805450109164e+01,2.530310145037110381e+00,0.000000000000000000e+00,0.000000000000000000e+00
9.900000000000007405e-02,1.010317594837350264e+01,2.563736241882736966e+00,0.000000000000000000e+00,0.000000000000000000e+00
1.000000000000000749e-01,1.010574728351640950e+01,2.597229160390808200e+00,0.000000000000000000e+00,0.000000000000000000e+00
1.010000000000000758e-01,1.010835212675169537e+01,2.630788906626504442e+00,0.000000000000000000e+00,0.000000000000000000e+00
1.020000000000000767e-01,1.011099054490999549e+01,2.664415488662417175e+00,0.000000000000000000e+00,0.000000000000000000e+00
1.030000000000000776e-01,1.011366260482780355e+01,2.698108909569857605e+00,0.000000000000000000e+00,0.000000000000000000e+00
1.040000000000000785e-01,1.011636837334470407e+01,2.731869172505902110e+00,0.000000000000000000e+00,0.000000000000000000e+00
1.050000000000000794e-01,1.011910791730346126e+01,2.765696280711872124e+00,0.000000000000000000e+00,0.000000000000000000e+00
1.060000000000000803e-01,1.012188130355009541e+01,2.799590237511798918e+00,0.000000000000000000e+00,0.000000000000000000e+00
1.070000000000000812e-01,1.012468859893396989e+01,2.833551046310723631e+00,0.000000000000000000e+00,0.000000000000000000e+00
1.080000000000000820e-01,1.012752987030787288e+01,2.867578710592499469e+00,0.000000000000000000e+00,0.000000000000000000e+00
1.090000000000000829e-01,1.013040518452809380e+01,2.901673233918477202e+00,0.000000000000000000e+00,0.000000000000000000e+00
1.100000000000000838e-01,1.013331460845449961e+01,2.935834619926112943e+00,1.036699640832591315e-16,0.000000000000000000e+00
1.110000000000000847e-01,1.013625820895061125e+01,2.970062872333495640e+00,1.254233711569731678e-16,0.000000000000000000e+00
1.120000000000000856e-01,1.013923605288368535e+01,3.004357994913828378e+00,1.594493971511364632e-16,0.000000000000000000e+00
1.130000000000000865e-01,1.014224820712476749e+01,3.038719991535017151e+00,2.980676060646864827e-17,0.000000000000000000e+00
1.140000000000000874e-01,1.014529473854875263e+01,3.073148866361803844e+00,-7.672770742612094275e-17,0.000000000000000000e+00
1.150000000000000883e-01,1.014837571403526439e+01,3.107644625897385549e+00,3.625969539417533717e-16,0.000000000000000000e+00
1.160000000000000892e-01,1.015149120047083819e+01,3.142207278072910892e+00,4.862585934510150054e-17,0.000000000000000000e+00
1.170000000000000900e-01,1.015464126474985740e+01,3.176836830511234666e+00,7.527605135601945045e-17,0.000000000000000000e+00
1.180000000000000909e-01,1.015782597377424779e+01,3.211533290493327364e+00,3.527997634823569256e-16,0.000000000000000000e+00
1.190000000000000918e-01,1.016104539445312582e+01,3.246296664934058995e+00,1.562385904797490413e-15,0.000000000000000000e+00
1.200000000000000927e-01,1.016429959370248426e+01,3.281126960503837342e+00,1.013163776641690335e-15,0.000000000000000000e+00
1.210000000000000936e-01,1.016758863844490079e+01,3.316024183532304104e+00,8.813629259537752886e-16,0.000000000000000000e+00
1.220000000000000945e-01,1.017091259560921479e+01,3.350988340054980252e+00,4.459933322275077286e-15,0.000000000000000000e+00
1.230000000000000954e-01,1.017427153213025370e+01,3.386019435893738549e+00,4.477915671982423222e-15,0.000000000000000000e+00
1.240000000000000963e-01,1.017766551494858618e+01,3.421117476530042723e+00,-6.183624003173219178e-15,0.000000000000000000e+00
1.250000000000000833e-01,1.018109461101020763e+01,3.456282467181791329e+00,-1.023816290348080631e-14,0.000000000000000000e+00
1.260000000000000842e-01,1.018455888726626846e+01,3.491514412812676493e+00,-3.472187591954999827e-15,0.000000000000000000e+00
1.270000000000000850e-01,1.018805841067282891e+01,3.526813318141145626e+00,1.582761379821131878e-14,0.000000000000000000e+00
1.280000000000000859e-01,1.019159324819061219e+01,3.562179187648988332e+00,2.944282416406068507e-14,0.000000000000000000e+00
1.290000000000000868e-01,1.019516346678477525e+01,3.597612025583202922e+00,1.886976152001869097e-14,0.000000000000000000e+00
1.300000000000000877e-01,1.019876913342466729e+01,3.633111835982818949e+00,1.373887859634227125e-14,0.000000000000000000e+00
1.310000000000000886e-01,1.020241031508363072e+01,3.668678622667670641e+00,-1.157800694147147203e-14,0.000000000000000000e+00
1.320000000000000895e-01,1.020608707873877918e+01,3.704312389251857685e+00,-3.288476139531313328e-16,0.000000000000000000e+00
1.330000000000000904e-01,1.020979949137080744e+01,3.740013139169777734e+00,-3.873932437113631405e-14,0.000000000000000000e+00
1.340000000000000913e-01,1.021354761996377825e+01,3.775780875625901700e+00,-4.282173685257314644e-14,0.000000000000000000e+00
1.350000000000000921e-01,1.021733153150492690e+01,3.811615601657706520e+00,-6.233875903782987389e-14,0.000000000000000000e+00
1.360000000000000930e-01,1.022115129298448721e+01,3.847517320123102991e+00,-1.165600042708276208e-13,0.000000000000000000e+00
1.370000000000000939e-01,1.022500697139551029e+01,3.883486033706333274e+00,-1.480580877974384608e-13,0.000000000000000000e+00
1.380000000000000948e-01,1.022889863373368868e+01,3.919521744971645738e+00,-1.429840797438999146e-13,0.000000000000000000e+00
1.390000000000000957e-01,1.023282634699724980e+01,3.955624456225294683e+00,-2.003677826101036523e-13,0.000000000000000000e+00
1.400000000000000966e-01,1.023679017818668946e+01,3.991794169663577474e+00,-2.788970337050528284e-13,0.000000000000000000e+00
1.410000000000000975e-01,1.024079019430466175e+01,4.028030887330479537e+00,-3.701006501585200260e-13,0.000000000000000000e+00
1.420000000000000984e-01,1.024482646235583339e+01,4.064334611122500718e+00,-3.786963025508285402e-13,0.000000000000000000e+00
1.430000000000000993e-01,1.024889904934673623e+01,4.100705342793301789e+00,-3.601099293947074741e-13,0.000000000000000000e+00
1.440000000000001001e-01,1.025300802228561992e+01,4.137143083958166656e+00,-2.937845590657779785e-13,0.000000000000000000e+00
1.450000000000001010e-01,1.025715344818232388e+01,4.173647836098294484e+00,-5.238234222314235025e-13,0.000000000000000000e+00
1.460000000000001019e-01,1.026133539404813533e+01,4.210219600564933273e+00,-4.627132325817306976e-13,0.000000000000000000e+00
1.470000000000001028e-01,1.026555392689566482e+01,4.246858378583354465e+00,-4.035081726787614341e-13,0.000000000000000000e+00
1.480000000000001037e-01,1.026980911373872196e+01,4.283564171256678321e+00,-5.119911844874482972e-13,0.000000000000000000e+00
1.490000000000001046e-01,1.027410102159219107e+01,4.320336979569558089e+00,-5.335924051969798213e-13,0.000000000000000000e+00
1.500000000000001055e-01,1.027842971747191392e+01,4.357176804391726499e+00,-3.808076520468785464e-13,0.000000000000000000e+00
1.510000000000001064e-01,1.028279526839530611e+01,4.394083674278465246e+00,-4.880956330462106970e-13,0.000000000000000000e+00
1.520000000000001072e-01,1.028719774141945997e+01,4.431057616917014386e+00,-1.110839326089903105e-13,0.000000000000000000e+00
1.530000000000001081e-01,1.029163720361696832e+01,4.468098631488005346e+00,7.556717893005402276e-14,0.000000000000000000e+00
1.540000000000001090e-01,1.029611372205952513e+01,4.505206716831697378e+00,3.448578440381966361e-13,0.000000000000000000e+00
1.550000000000001099e-01,1.030062736381758093e+01,4.542381871443478047e+00,7.785899055869062562e-13,0.000000000000000000e+00
1.560000000000001108e-01,1.030517819596002482e+01,4.579624093529817586e+00,4.901583471343955991e-13,0.000000000000000000e+00
1.570000000000001117e-01,1.030976628555387364e+01,4.616933380972084500e+00,6.115829508779393227e-13,0.000000000000000000e+00
1.580000000000001126e-01,1.031439169966395930e+01,4.654309731351575330e+00,4.319943951753158242e-13,0.000000000000000000e+00
