Time (s),Altitude (m),Velocity (m/s),Angular Velocity (rad/s),Fin Cant Angle (deg),Angular Position (deg)
0.000000000000000000e+00,1.000000000000000000e+01,0.000000000000000000e+00,0.000000000000000000e+00,0.000000000000000000e+00,0.000000000000000000e+00
2.500000000000000052e-03,9.999986426757764946e+00,-1.929407304906242265e-02,0.000000000000000000e+00,0.000000000000000000e+00,0.000000000000000000e+00
5.000000000000000104e-03,9.999930505828414695e+00,-2.821726037257865291e-02,0.000000000000000000e+00,0.000000000000000000e+00,0.000000000000000000e+00
7.499999999999999722e-03,9.999858165140260269e+00,-2.676830426824029080e-02,0.000000000000000000e+00,0.000000000000000000e+00,0.000000000000000000e+00
1.000000000000000021e-02,9.999795335372661853e+00,-1.494663961594598633e-02,0.000000000000000000e+00,0.000000000000000000e+00,0.000000000000000000e+00
1.250000000000000069e-02,9.999767948617842350e+00,7.248298774633201574e-03,0.000000000000000000e+00,0.000000000000000000e+00,0.000000000000000000e+00
1.500000000000000118e-02,9.999801938381079225e+00,3.981707612869882229e-02,0.000000000000000000e+00,0.000000000000000000e+00,0.000000000000000000e+00
1.750000000000000167e-02,9.999923239580489565e+00,8.276025709831244526e-02,0.000000000000000000e+00,0.000000000000000000e+00,0.000000000000000000e+00
2.000000000000000042e-02,1.000015778854450588e+01,1.360784037449070671e-01,0.000000000000000000e+00,0.000000000000000000e+00,0.000000000000000000e+00
2.249999999999999917e-02,1.000053152300275805e+01,1.997720706770902410e-01,0.000000000000000000e+00,0.000000000000000000e+00,0.000000000000000000e+00
2.499999999999999792e-02,1.000107120160078722e+01,2.706715487117086205e-01,0.000000000000000000e+00,0.000000000000000000e+00,0.000000000000000000e+00
2.749999999999999667e-02,1.000178836584752595e+01,3.421710096935335343e-01,0.000000000000000000e+00,0.000000000000000000e+00,0.000000000000000000e+00
2.999999999999999542e-02,1.000268451568385153e+01,4.140878432006461773e-01,0.000000000000000000e+00,0.000000000000000000e+00,0.000000000000000000e+00
3.249999999999999417e-02,1.000376069450258498e+01,4.864219784361072940e-01,0.000000000000000000e+00,0.000000000000000000e+00,0.000000000000000000e+00
3.499999999999999639e-02,1.000501794550893031e+01,5.591733491686088353e-01,0.000000000000000000e+00,0.000000000000000000e+00,0.000000000000000000e+00
3.749999999999999861e-02,1.000645731179382736e+01,6.323420774786577825e-01,0.000000000000000000e+00,0.000000000000000000e+00,0.000000000000000000e+00
4.000000000000000083e-02,1.000807983707343674e+01,7.059286612198483191e-01,0.000000000000000000e+00,0.000000000000000000e+00,0.000000000000000000e+00
4.250000000000000305e-02,1.000988656592044812e+01,7.799325149074040064e-01,0.000000000000000000e+00,0.000000000000000000e+00,0.000000000000000000e+00
4.500000000000000527e-02,1.001187854104809816e+01,8.543534955540409426e-01,0.000000000000000000e+00,0.000000000000000000e+00,0.000000000000000000e+00
4.750000000000000749e-02,1.001405680554228717e+01,9.291919227748168808e-01,0.000000000000000000e+00,0.000000000000000000e+00,0.000000000000000000e+00
5.000000000000000971e-02,1.001642240312678211e+01,1.004447932230144280e+00,0.000000000000000000e+00,0.000000000000000000e+00,0.000000000000000000e+00
5.250000000000001193e-02,1.001897637782164097e+01,1.080121810905545043e+00,0.000000000000000000e+00,0.000000000000000000e+00,0.000000000000000000e+00
5.500000000000001416e-02,1.002171977459996377e+01,1.156213845890894598e+00,0.000000000000000000e+00,0.000000000000000000e+00,0.000000000000000000e+00
5.750000000000001638e-02,1.002465363886710747e+01,1.232724042379725660e+00,0.000000000000000000e+00,0.000000000000000000e+00,0.000000000000000000e+00
6.000000000000001860e-02,1.002777901602056332e+01,1.309652395374595102e+00,0.000000000000000000e+00,0.000000000000000000e+00,0.000000000000000000e+00
6.250000000000001388e-02,1.003109695145042934e+01,1.386998910696934262e+00,0.000000000000000000e+00,0.000000000000000000e+00,0.000000000000000000e+00
6.500000000000001610e-02,1.003460849056791027e+01,1.464763604123153318e+00,0.000000000000000000e+00,0.000000000000000000e+00,0.000000000000000000e+00
6.750000000000001832e-02,1.003831467882860018e+01,1.542946498521542198e+00,0.000000000000000000e+00,0.000000000000000000e+00,0.000000000000000000e+00
7.000000000000002054e-02,1.004221656174870958e+01,1.621547621601777012e+00,0.000000000000000000e+00,0.000000000000000000e+00,0.000000000000000000e+00
7.250000000000002276e-02,1.004631518491609121e+01,1.700567004378295222e+00,-1.003523516252233800e-15,0.000000000000000000e+00,0.000000000000000000e+00
7.500000000000002498e-02,1.005061159399777182e+01,1.780004680139229301e+00,-5.130728327047403239e-15,0.000000000000000000e+00,2.143458519518488569e-15
7.750000000000002720e-02,1.005510683474581057e+01,1.859860684177125911e+00,-2.737824532727352746e-14,0.000000000000000000e+00,1.208769585682673002e-14
8.000000000000002942e-02,1.005980195299983038e+01,1.940135050455172872e+00,-3.636926767953190241e-14,0.000000000000000000e+00,4.591248496098905884e-14
8.250000000000003164e-02,1.006469799468512250e+01,2.020827814707313319e+00,-2.745413098450087880e-13,0.000000000000000000e+00,1.396482795751601812e-13
8.500000000000003386e-02,1.006979600581504464e+01,2.101939011436010585e+00,2.962143622554849778e-13,0.000000000000000000e+00,3.454870064746395287e-13
8.750000000000003608e-02,1.007509703249141886e+01,2.183468675522548530e+00,7.324943473007811502e-13,0.000000000000000000e+00,7.155030923187132901e-13
9.000000000000003830e-02,1.008060212090072127e+01,2.265416838892280182e+00,1.812756597704622569e-12,0.000000000000000000e+00,1.328230836721180943e-12
9.250000000000004052e-02,1.008631231730942446e+01,2.347783532462206058e+00,3.422505792093597399e-12,0.000000000000000000e+00,2.291514933557477285e-12
9.500000000000004274e-02,1.009222866805917995e+01,2.430568783221292772e+00,6.271101585124094452e-12,0.000000000000000000e+00,3.708262620691722367e-12
9.750000000000004496e-02,1.009835221955771090e+01,2.513772615759654272e+00,4.650106499901049189e-12,0.000000000000000000e+00,5.618303167162975248e-12
1.000000000000000472e-01,1.010468401826877383e+01,2.597395041958635797e+00,7.116080948203853889e-12,0.000000000000000000e+00,8.408773847467256698e-12
1.025000000000000494e-01,1.011122511067028285e+01,2.681435926840578521e+00,5.405970502950701194e-12,0.000000000000000000e+00,1.229343394145811649e-11
1.050000000000000516e-01,1.011797654274810121e+01,2.765895121642468535e+00,6.708679411452422717e-12,0.000000000000000000e+00,1.768582331649760209e-11
1.075000000000000538e-01,1.012493936027296648e+01,2.850772619338014291e+00,1.276037838350609137e-11,0.000000000000000000e+00,2.497184406478148678e-11
1.100000000000000561e-01,1.013211460899711547e+01,2.936068411250441823e+00,3.155498084897193223e-11,0.000000000000000000e+00,3.442049046584143238e-11
1.125000000000000583e-01,1.013950333465015241e+01,3.021782487040443499e+00,2.676947846893544969e-11,0.000000000000000000e+00,4.606477754395215997e-11
1.150000000000000605e-01,1.014710658293488699e+01,3.107914834696130946e+00,3.407131956091933905e-11,0.000000000000000000e+00,6.028745484813159482e-11
1.175000000000000627e-01,1.015492539952314388e+01,3.194465440519782096e+00,1.305291921716746600e-11,0.000000000000000000e+00,7.761286378533639754e-11
1.200000000000000649e-01,1.016296083005154571e+01,3.281434289117206138e+00,3.399535867836854027e-11,0.000000000000000000e+00,9.895253097019338552e-11
1.225000000000000672e-01,1.017121392011726044e+01,3.368821363385539502e+00,6.408187776064940744e-11,0.000000000000000000e+00,1.246188117420458110e-10
1.250000000000000555e-01,1.017968571527372568e+01,3.456626644500838452e+00,5.056030528340506012e-11,0.000000000000000000e+00,1.544000729266606044e-10
1.275000000000000577e-01,1.018837726102633923e+01,3.544850111905960333e+00,3.057413232168818615e-11,0.000000000000000000e+00,1.893920371828402202e-10
1.300000000000000600e-01,1.019728960282811769e+01,3.633491743299699372e+00,-6.879605478869543452e-12,0.000000000000000000e+00,2.305657939812694000e-10
1.325000000000000622e-01,1.020642378607533196e+01,3.722551514625361158e+00,-2.201420524753157294e-11,0.000000000000000000e+00,2.792120248150037803e-10
1.350000000000000644e-01,1.021578085610311248e+01,3.812029400057735273e+00,-2.845913926059344383e-11,0.000000000000000000e+00,3.364722827113525678e-10
1.375000000000000666e-01,1.022536185818101728e+01,3.901925371989959146e+00,-8.700203575908094133e-12,0.000000000000000000e+00,4.032734534116277073e-10
1.400000000000000688e-01,1.023516783750857329e+01,3.992239401021212331e+00,5.150690163516883733e-11,0.000000000000000000e+00,4.802284446357379951e-10
1.425000000000000711e-01,1.024519983921078392e+01,4.082971455943400052e+00,1.805035788021990935e-11,0.000000000000000000e+00,5.677967946971501894e-10
1.450000000000000733e-01,1.025545890833360119e+01,4.174121503728264848e+00,-4.634808735920854571e-11,0.000000000000000000e+00,6.672671505074869213e-10
1.475000000000000755e-01,1.026594608983937107e+01,4.265689509514664302e+00,7.532031659243963378e-14,0.000000000000000000e+00,7.806104687789172007e-10
1.500000000000000777e-01,1.027666242860224521e+01,4.357675436594817597e+00,9.424584884208241830e-12,0.000000000000000000e+00,9.086671187940555753e-10
1.525000000000000799e-01,1.028760896939425429e+01,4.450079124605202274e+00,1.339460893175542731e-10,0.000000000000000000e+00,1.052172434960307209e-09
1.550000000000000822e-01,1.029878675645066188e+01,4.542900386377952238e+00,1.834862825341729126e-10,0.000000000000000000e+00,1.210995257685557574e-09
1.575000000000000844e-01,1.031019683366250916e+01,4.636139145328526112e+00,2.747376020716733628e-10,0.000000000000000000e+00,1.384934981946277553e-09
1.600000000000000866e-01,1.032184024472696038e+01,4.729795320485302490e+00,2.455922305641218070e-10,0.000000000000000000e+00,1.573264586305607669e-09
1.625000000000000888e-01,1.033371803313624682e+01,4.823868826364595463e+00,2.884931461301751164e-10,0.000000000000000000e+00,1.776809659228454443e-09
1.650000000000000910e-01,1.034583124216635674e+01,4.918359572941113811e+00,3.067310523915297580e-10,0.000000000000000000e+00,1.995350175073783471e-09
1.675000000000000933e-01,1.035818091486570403e+01,5.013267465718201699e+00,5.132814528263245276e-10,0.000000000000000000e+00,2.229230714085503592e-09
1.700000000000000955e-01,1.037076809404402589e+01,5.108592405898853883e+00,6.960387433610819272e-10,0.000000000000000000e+00,2.477126878519371378e-09
1.725000000000000977e-01,1.038359382226177807e+01,5.204334290664295537e+00,9.624437619625420829e-10,0.000000000000000000e+00,2.737844550719249601e-09
1.750000000000000999e-01,1.039665914182028317e+01,5.300493013565750644e+00,7.548044850130776654e-10,0.000000000000000000e+00,3.009348507135554535e-09
1.775000000000001021e-01,1.040996509475292697e+01,5.397068465036437779e+00,9.714862192337857389e-10,0.000000000000000000e+00,3.292927470298665370e-09
1.800000000000001044e-01,1.042351272281770314e+01,5.494060533031355220e+00,9.809654383673548809e-10,0.000000000000000000e+00,3.587111259730075934e-09
1.825000000000001066e-01,1.043730306749143821e+01,5.591469103803970775e+00,1.066956568242591124e-09,0.000000000000000000e+00,3.891740915018181519e-09
1.850000000000001088e-01,1.045133716996603646e+01,5.689294062829249654e+00,1.187218034242110648e-09,0.000000000000000000e+00,4.205919805921534364e-09
1.875000000000001110e-01,1.046561607114712089e+01,5.787535295882124231e+00,1.061997948195425279e-09,0.000000000000000000e+00,4.528823863461457536e-09
1.900000000000001132e-01,1.048014081165545441e+01,5.886192690281948359e+00,1.120543645451919936e-09,0.000000000000000000e+00,4.860914831486454446e-09
1.925000000000001155e-01,1.049491243183158140e+01,5.985266136312116458e+00,1.109216003417406940e-09,0.000000000000000000e+00,5.201907233751985944e-09
1.950000000000001177e-01,1.050993197174411442e+01,6.084755528827050952e+00,1.258044464586743944e-09,0.000000000000000000e+00,5.551250310550500041e-09
1.975000000000001199e-01,1.052520047120214208e+01,6.184660769054149299e+00,1.271648893226830190e-09,0.000000000000000000e+00,5.907007601921302661e-09
2.000000000000001221e-01,1.054071897243882461e+01,6.284979482490788527e+00,1.390833416276896850e-09,0.000000000000000000e+00,6.274193369882001591e-09
2.025000000000001243e-01,1.055648850060204680e+01,6.385710633498515421e+00,1.198465425598160034e-09,0.000000000000000000e+00,6.652691171069504568e-09
2.050000000000001266e-01,1.057251009263267250e+01,6.486857516628913523e+00,1.571996714475719380e-09,0.000000000000000000e+00,7.043140687184178876e-09
2.075000000000001288e-01,1.058878478783692501e+01,6.588420094139450178e+00,1.696870311902233846e-09,0.000000000000000000e+00,7.443262239915224172e-09
2.100000000000001310e-01,1.060531362543700951e+01,6.690398347329692186e+00,1.468712870518140303e-09,0.000000000000000000e+00,7.852022190569970846e-09
2.125000000000001332e-01,1.062209771331417407e+01,6.792672473187170823e+00,1.248206735395731071e-09,0.000000000000000000e+00,8.269721728057828633e-09
2.150000000000001354e-01,1.063913740853514156e+01,6.894756662082958343e+00,1.217317768270202884e-09,0.000000000000000000e+00,8.696909233331165918e-09
2.175000000000001377e-01,1.065643217580734436e+01,6.996597060510497457e+00,1.124099924361053903e-09,0.000000000000000000e+00,9.133416535847739829e-09
2.200000000000001399e-01,1.067398140566971421e+01,7.098193704657835390e+00,1.117019348549501506e-09,0.000000000000000000e+00,9.578637266912616151e-09
2.225000000000001421e-01,1.069178448877173437e+01,7.199546667398308841e+00,1.021052314772215117e-09,0.000000000000000000e+00,1.003171050914629862e-08
2.250000000000001443e-01,1.070984081596714788e+01,7.300656061900929750e+00,8.343622872306744455e-10,0.000000000000000000e+00,1.049250525495689505e-08
2.275000000000001465e-01,1.072814977841675876e+01,7.401522045351432766e+00,8.240527783007742975e-10,0.000000000000000000e+00,1.096079056596835107e-08
2.300000000000001488e-01,1.074671076770059308e+01,7.502144822757439435e+00,1.082865711143411887e-09,0.000000000000000000e+00,1.143579366068929626e-08
2.325000000000001510e-01,1.076552317593960062e+01,7.602524650808009099e+00,8.530579292782967347e-10,0.000000000000000000e+00,1.191565401299409704e-08
2.350000000000001532e-01,1.078458639592703427e+01,7.702661841755493732e+00,9.211622628714277204e-10,0.000000000000000000e+00,1.239996600339829547e-08
2.375000000000001554e-01,1.080389982126952297e+01,7.802556767288405304e+00,8.153116029972538392e-10,0.000000000000000000e+00,1.288777692293257102e-08
2.400000000000001577e-01,1.082346284653782575e+01,7.902209862360345838e+00,8.605345475739371948e-10,0.000000000000000000e+00,1.337800327602400300e-08
2.425000000000001599e-01,1.084327486742947144e+01,8.001621741638254903e+00,8.566061913310069016e-10,0.000000000000000000e+00,1.387016724666196128e-08
2.450000000000001621e-01,1.086333528138758808e+01,8.100793174207364444e+00,9.022195702365550025e-10,0.000000000000000000e+00,1.436426101671907142e-08
2.475000000000001643e-01,1.088364348762692835e+01,8.199724929980179766e+00,9.840131395635866688e-10,0.000000000000000000e+00,1.486036565406294604e-08
2.500000000000001665e-01,1.090419888767687162e+01,8.298418411366037972e+00,9.170783818154420574e-10,0.000000000000000000e+00,1.535814643695646898e-08
2.525000000000001688e-01,1.092500088667779856e+01,8.396874825977056034e+00,9.950751749170424215e-10,0.000000000000000000e+00,1.585789386063743236e-08
2.550000000000001710e-01,1.094604889244426182e+01,8.495094991688549868e+00,1.034940065122102328e-09,0.000000000000000000e+00,1.635952281365998685e-08
2.575000000000001732e-01,1.096734231476544963e+01,8.593079519625742790e+00,1.403022064230639288e-09,0.000000000000000000e+00,1.686288703728108371e-08
2.600000000000001754e-01,1.098888056478986108e+01,8.690828726037947760e+00,1.339704500872452645e-09,0.000000000000000000e+00,1.736754170570822938e-08
2.625000000000001776e-01,1.101066305429439574e+01,8.788342643385208319e+00,7.146383053765658289e-10,0.000000000000000000e+00,1.787409078211581015e-08
2.650000000000001799e-01,1.103268919498092160e+01,8.885621030981106117e+00,6.582066154419182036e-10,0.000000000000000000e+00,1.838423008409003120e-08
2.675000000000001821e-01,1.105495839779919542e+01,8.982663385204595841e+00,9.659043892976908390e-10,0.000000000000000000e+00,1.889839202868546635e-08
2.700000000000001843e-01,1.107747007229509251e+01,9.079468949296792601e+00,8.349082475048568575e-10,0.000000000000000000e+00,1.941645076099399188e-08
2.725000000000001865e-01,1.110022362598309442e+01,9.176036722761338638e+00,1.200067245774795268e-09,0.000000000000000000e+00,1.993935443056770305e-08
2.750000000000001887e-01,1.112321846374207013e+01,9.272365470388422182e+00,1.925610368717802352e-09,0.000000000000000000e+00,2.046711251398000585e-08
2.775000000000001910e-01,1.114645398723341430e+01,9.368453730921940448e+00,2.060313835652041366e-09,0.000000000000000000e+00,2.099851742624110385e-08
2.800000000000001932e-01,1.116992959433361854e+01,9.464299849628341477e+00,1.484774282621328818e-09,0.000000000000000000e+00,2.153407228623566929e-08
2.825000000000001954e-01,1.119364467871964131e+01,9.559902204364261635e+00,1.397747848255009759e-09,0.000000000000000000e+00,2.207570458295196019e-08
2.850000000000001976e-01,1.121759863012390745e+01,9.655259376745300770e+00,2.101732721901710622e-09,0.000000000000000000e+00,2.262424954117851972e-08
2.875000000000001998e-01,1.124179083484971109e+01,9.750370150577984063e+00,2.701830389480790978e-09,0.000000000000000000e+00,2.317926637882695318e-08
2.900000000000002021e-01,1.126622067627053880e+01,9.845233501162255152e+00,3.127498656739424871e-09,0.000000000000000000e+00,2.374034720664574870e-08
2.925000000000002043e-01,1.129088753530299805e+01,9.939848585211427334e+00,2.935310280812821456e-09,0.000000000000000000e+00,2.430771258133501298e-08
2.950000000000002065e-01,1.131579079085487116e+01,1.003421473134960884e+01,3.225070939688672337e-09,0.000000000000000000e+00,2.488236054069390280e-08
2.975000000000002087e-01,1.134092982024973217e+01,1.012833143115128287e+01,3.912884853935303214e-09,0.000000000000000000e+00,2.546448294954023301e-08
3.000000000000002109e-01,1.136630399962944615e+01,1.022219833068912642e+01,3.361459335497078190e-09,0.000000000000000000e+00,2.605353372078390698e-08
3.025000000000002132e-01,1.139191270441261850e+01,1.031581640638354003e+01,4.105795233668922463e-09,0.000000000000000000e+00,2.665132431262659180e-08
3.050000000000002154e-01,1.141775531374148756e+01,1.040918674531926413e+01,4.198877278234517153e-09,0.000000000000000000e+00,2.725725495678636663e-08
3.075000000000002176e-01,1.144383120823225930e+01,1.050230929064978902e+01,4.571000739337104511e-09,0.000000000000000000e+00,2.787138562262367337e-08
3.100000000000002198e-01,1.147013976837720328e+01,1.059518401699568813e+01,5.056899572742673791e-09,0.000000000000000000e+00,2.849407624873522321e-08
3.125000000000002220e-01,1.149668037462251746e+01,1.068781092905708618e+01,4.705139995535406534e-09,0.000000000000000000e+00,2.912499497735566881e-08
3.150000000000002243e-01,1.152345240744277177e+01,1.078019006029883009e+01,4.267183351261965742e-09,0.000000000000000000e+00,2.976532047901714112e-08
3.175000000000002265e-01,1.155045524741209562e+01,1.087232147170349528e+01,4.223514779708289609e-09,0.000000000000000000e+00,3.041623697000981776e-08
3.200000000000002287e-01,1.157768827527229405e+01,1.096420525058838891e+01,5.774445047842118761e-09,0.000000000000000000e+00,3.107949285353712258e-08
3.225000000000002309e-01,1.160515087199803119e+01,1.105584150948179278e+01,6.333273515198805036e-09,0.000000000000000000e+00,3.175207071938176132e-08
3.250000000000002331e-01,1.163284241885924608e+01,1.114723038505468011e+01,7.406368108527561427e-09,0.000000000000000000e+00,3.243347156842668288e-08
3.275000000000002354e-01,1.166076229748091997e+01,1.123837203710467669e+01,6.283465672522447533e-09,0.000000000000000000e+00,3.312225215006300854e-08
