Time (s),Altitude (m),Velocity (m/s),Angular Velocity (rad/s),Fin Cant Angle (deg),Angular Position (deg)
0.000000000000000000e+00,1.000000000000000000e+01,0.000000000000000000e+00,-4.812052222680040227e-14,0.000000000000000000e+00,7.112842937764249955e-15
2.500000000000000052e-03,9.999986426764204239e+00,-1.929408654998070183e-02,-1.840682199293211978e-12,0.000000000000000000e+00,-1.503215683896374588e-14
5.000000000000000104e-03,9.999930505803272140e+00,-2.821733932808185435e-02,-9.873900809505318838e-13,0.000000000000000000e+00,3.390660384232199701e-13
7.499999999999999722e-03,9.999858164850230935e+00,-2.676861779229360722e-02,-3.317171321084376637e-12,0.000000000000000000e+00,1.155574490505353615e-12
1.000000000000000021e-02,9.999795334107487221e+00,-1.494745611709559670e-02,-3.997570465641527119e-12,0.000000000000000000e+00,3.372224543878632584e-12
1.250000000000000069e-02,9.999767944933619646e+00,7.246596589081907500e-03,1.073005812761911085e-11,0.000000000000000000e+00,7.878535222643635208e-12
1.500000000000000118e-02,9.999801929809654766e+00,3.981398257120356138e-02,3.090508647702972141e-11,0.000000000000000000e+00,1.462399404743413793e-11
1.750000000000000167e-02,9.999923222317173455e+00,8.275513493754779737e-02,1.834555481408687236e-11,0.000000000000000000e+00,2.407226462300613778e-11
2.000000000000000042e-02,1.000015775711512589e+01,1.360704770342580916e-01,3.418003843861229472e-11,0.000000000000000000e+00,3.777692171886552875e-11
2.249999999999999917e-02,1.000053146991496789e+01,1.997604216420971190e-01,3.397712200517192221e-11,0.000000000000000000e+00,5.566382101427201957e-11
2.499999999999999792e-02,1.000107111699287898e+01,2.706551238239950363e-01,7.701815729970533177e-11,0.000000000000000000e+00,7.884770141368711421e-11
2.749999999999999667e-02,1.000178823715769916e+01,3.421486336052498856e-01,2.012434641482186205e-10,0.000000000000000000e+00,1.069139767276351419e-10
2.999999999999999542e-02,1.000268432735499147e+01,4.140582399761676968e-01,8.018105022037363301e-11,0.000000000000000000e+00,1.381291351980268484e-10
3.249999999999999417e-02,1.000376042774569818e+01,4.863837954318398493e-01,2.274952063356954589e-10,0.000000000000000000e+00,1.762612397611005834e-10
3.499999999999999639e-02,1.000501757811464643e+01,5.591251392563999500e-01,6.147469542120227886e-11,0.000000000000000000e+00,2.192264985126679416e-10
3.749999999999999861e-02,1.000645681783721486e+01,6.322820969822284809e-01,-4.292679936453587975e-11,0.000000000000000000e+00,2.714548189349204797e-10
4.000000000000000083e-02,1.000807918584465384e+01,7.058544798304305923e-01,-1.630549681255764023e-10,0.000000000000000000e+00,3.367140723688170275e-10
4.250000000000000305e-02,1.000988572058796855e+01,7.798420841380592217e-01,-1.763362137527497249e-10,0.000000000000000000e+00,4.191316737020009478e-10
4.500000000000000527e-02,1.001187746000039347e+01,8.542446907591421112e-01,-4.978762885634593744e-10,0.000000000000000000e+00,5.226494640921022187e-10
4.750000000000000749e-02,1.001405544145832671e+01,9.290620644577552989e-01,-3.080467080734244009e-10,0.000000000000000000e+00,6.550077121611291151e-10
5.000000000000000971e-02,1.001642070174077226e+01,1.004293953282695995e+00,9.907470091918961724e-11,0.000000000000000000e+00,8.181070043228377705e-10
5.250000000000001193e-02,1.001897427698670739e+01,1.079940075979637149e+00,4.189555405951694310e-10,0.000000000000000000e+00,1.007455537187962221e-09
5.500000000000001416e-02,1.002171720260873400e+01,1.156000129352622530e+00,7.804907337535014003e-11,0.000000000000000000e+00,1.222693215144243543e-09
5.750000000000001638e-02,1.002465051326124090e+01,1.232473800852757151e+00,3.630395259314048766e-10,0.000000000000000000e+00,1.471425340788862792e-09
6.000000000000001860e-02,1.002777524280596211e+01,1.309360757651301999e+00,-6.447583967698948232e-11,0.000000000000000000e+00,1.755358436537253112e-09
6.250000000000001388e-02,1.003109242426081948e+01,1.386660645855660068e+00,2.028346659054454537e-10,0.000000000000000000e+00,2.083545581458094079e-09
6.500000000000001610e-02,1.003460308974683279e+01,1.464373089710934828e+00,-2.060757667810448976e-10,0.000000000000000000e+00,2.454000180438954124e-09
6.750000000000001832e-02,1.003830827043298513e+01,1.542497690774231378e+00,-1.938737270528033696e-10,0.000000000000000000e+00,2.880339410891655268e-09
7.000000000000002054e-02,1.004220899647904552e+01,1.621034027072286499e+00,7.883160017162020646e-10,0.000000000000000000e+00,3.364073260765878661e-09
7.250000000000002276e-02,1.004630629697625999e+01,1.699981652248520936e+00,1.265335380760102253e-09,0.000000000000000000e+00,3.901523778570740956e-09
7.500000000000002498e-02,1.005060119988588951e+01,1.779340094663405925e+00,1.958667643670118541e-09,0.000000000000000000e+00,4.493619043990759234e-09
7.750000000000002720e-02,1.005509473197549752e+01,1.859108856492343032e+00,1.847556716762569193e-09,0.000000000000000000e+00,5.134448473709559488e-09
8.000000000000002942e-02,1.005978791875297595e+01,1.939287412789076459e+00,3.747474346574155213e-10,0.000000000000000000e+00,5.830142940679645668e-09
8.250000000000003164e-02,1.006468178439818217e+01,2.019875210515116759e+00,9.316856457640423845e-10,0.000000000000000000e+00,6.601487635994146224e-09
8.500000000000003386e-02,1.006977735169216714e+01,2.100871667563978029e+00,2.389319561488742172e-09,0.000000000000000000e+00,7.446142904448685062e-09
8.750000000000003608e-02,1.007507564194395222e+01,2.182276171764387040e+00,2.166377075644369579e-09,0.000000000000000000e+00,8.362122576276751272e-09
9.000000000000003830e-02,1.008057767491479240e+01,2.264088079837117018e+00,1.963422278075050265e-09,0.000000000000000000e+00,9.352607739594232641e-09
9.250000000000004052e-02,1.008628446873979279e+01,2.346306716346249654e+00,4.842882004249108051e-09,0.000000000000000000e+00,1.042920099610236118e-08
9.500000000000004274e-02,1.009219703984693339e+01,2.428931372618349016e+00,3.347038033840002532e-09,0.000000000000000000e+00,1.157334857844460208e-08
9.750000000000004496e-02,1.009831640287335652e+01,2.511961305635952435e+00,4.786720871008307666e-09,0.000000000000000000e+00,1.280231046276599415e-08
1.000000000000000472e-01,1.010464357057886708e+01,2.595395736906325634e+00,6.279660836572335000e-09,0.000000000000000000e+00,1.410977374997166423e-08
1.025000000000000494e-01,1.011117955383364198e+01,2.679235385343943676e+00,4.832439945074483040e-09,0.000000000000000000e+00,1.549091960606610956e-08
1.050000000000000516e-01,1.011792536690731481e+01,2.763481186921827426e+00,3.014522751695981744e-09,0.000000000000000000e+00,1.696082710973035214e-08
1.075000000000000538e-01,1.012488202490962586e+01,2.848132656740854696e+00,2.384309339325430867e-09,0.000000000000000000e+00,1.853720496389637040e-08
1.100000000000000561e-01,1.013205054173271868e+01,2.933189300367197827e+00,4.154825722511767196e-09,0.000000000000000000e+00,2.023824967242077349e-08
1.125000000000000583e-01,1.013943193002713627e+01,3.018650613517233072e+00,1.627222294620433782e-09,0.000000000000000000e+00,2.205773926776558812e-08
1.150000000000000605e-01,1.014702720117698753e+01,3.104516081730305466e+00,1.745257506365811862e-09,0.000000000000000000e+00,2.401099852238091028e-08
1.175000000000000627e-01,1.015483736527432868e+01,3.190785180003193222e+00,1.940768551279451603e-09,0.000000000000000000e+00,2.611979267225366570e-08
1.200000000000000649e-01,1.016286343109261558e+01,3.277457372468102204e+00,1.616066904556239056e-09,0.000000000000000000e+00,2.838208183736549717e-08
1.225000000000000672e-01,1.017110640605933192e+01,3.364532112032052158e+00,-1.961314873563088868e-09,0.000000000000000000e+00,3.080523429306758173e-08
1.250000000000000555e-01,1.017956729622772194e+01,3.452008840029073600e+00,-2.880057116554754359e-09,0.000000000000000000e+00,3.342336855849436910e-08
1.275000000000000577e-01,1.018824710624768137e+01,3.539886985870916103e+00,-3.715578127792279604e-09,0.000000000000000000e+00,3.626074845056251554e-08
1.300000000000000600e-01,1.019714683933574406e+01,3.628165966681850207e+00,-3.936354056831826134e-09,0.000000000000000000e+00,3.932131137770817255e-08
1.325000000000000622e-01,1.020626749724413607e+01,3.716845186916245769e+00,-3.031875610210847268e-09,0.000000000000000000e+00,4.262692038526704930e-08
1.350000000000000644e-01,1.021561008022889538e+01,3.805924037973344998e+00,-3.604366091395121361e-09,0.000000000000000000e+00,4.618274531812763390e-08
1.375000000000000666e-01,1.022517558701699869e+01,3.895401897820294668e+00,-5.106576457686410887e-09,0.000000000000000000e+00,4.999973108316683784e-08
1.400000000000000688e-01,1.023496501477260701e+01,3.985278130628420623e+00,-8.228162261864761629e-09,0.000000000000000000e+00,5.410652833340081485e-08
1.425000000000000711e-01,1.024497935906233081e+01,4.075552086377045136e+00,-3.171344546891717198e-09,0.000000000000000000e+00,5.852410615899596146e-08
1.450000000000000733e-01,1.025521961381953595e+01,4.166223100453453121e+00,-6.075565273076903596e-09,0.000000000000000000e+00,6.324759205306939407e-08
1.475000000000000755e-01,1.026568677130762275e+01,4.257290493239600515e+00,1.500652733145796971e-09,0.000000000000000000e+00,6.829767572355414467e-08
1.500000000000000777e-01,1.027638182208230155e+01,4.348753569737169755e+00,3.230695993062406411e-09,0.000000000000000000e+00,7.364608933038413079e-08
1.525000000000000799e-01,1.028730575554673266e+01,4.440621871190312930e+00,8.920241381881027889e-09,0.000000000000000000e+00,7.929347672021747750e-08
1.550000000000000822e-01,1.029845959544737433e+01,4.532905497925781901e+00,4.255326700998767453e-09,0.000000000000000000e+00,8.521339580635280059e-08
1.575000000000000844e-01,1.030984438018021621e+01,4.625604594772287470e+00,-2.811664770344845950e-09,0.000000000000000000e+00,9.143587066035812597e-08
1.600000000000000866e-01,1.032146114850020879e+01,4.718719299749216667e+00,-1.174981080327201076e-08,0.000000000000000000e+00,9.801124461351511065e-08
1.625000000000000888e-01,1.033331093950256907e+01,4.812249741249918777e+00,-1.674081221729581441e-08,0.000000000000000000e+00,1.049835355738878269e-07
1.650000000000000910e-01,1.034539479259723649e+01,4.906196035555941748e+00,-1.992405985578776983e-08,0.000000000000000000e+00,1.123883564965999268e-07
1.675000000000000933e-01,1.035771374747727869e+01,5.000558284675049592e+00,-1.221723421223684480e-08,0.000000000000000000e+00,1.202496480739431458e-07
1.700000000000000955e-01,1.037026884408206762e+01,5.095336574435352262e+00,-5.368495132275593551e-09,0.000000000000000000e+00,1.285377897095281182e-07
1.725000000000000977e-01,1.038306112255583180e+01,5.190530972843272473e+00,-1.009447148623666985e-08,0.000000000000000000e+00,1.372317373182507855e-07
1.750000000000000999e-01,1.039609162320225266e+01,5.286141528672116507e+00,1.901914912866232371e-09,0.000000000000000000e+00,1.463555572454344386e-07
1.775000000000001021e-01,1.040936138643566267e+01,5.382168270290041079e+00,-3.319118483327314846e-09,0.000000000000000000e+00,1.558670604651906878e-07
1.800000000000001044e-01,1.042287145272940307e+01,5.478611204654064260e+00,6.953838020562031918e-09,0.000000000000000000e+00,1.657870596436257702e-07
1.825000000000001066e-01,1.043662286256180671e+01,5.575470316502998180e+00,-1.001349471266488354e-09,0.000000000000000000e+00,1.760780197566774939e-07
1.850000000000001088e-01,1.045061665636024983e+01,5.672745567723758597e+00,-1.136123984016305308e-09,0.000000000000000000e+00,1.867756191004274542e-07
1.875000000000001110e-01,1.046485387444369231e+01,5.770436896836673490e+00,-6.014088038979853264e-09,0.000000000000000000e+00,1.978834675510992223e-07
1.900000000000001132e-01,1.047933555696402230e+01,5.868544218625331155e+00,-6.729160566508352151e-09,0.000000000000000000e+00,2.094273130711384959e-07
1.925000000000001155e-01,1.049406274384655724e+01,5.967067423917700175e+00,-1.247024491173037281e-10,0.000000000000000000e+00,2.214107626113915379e-07
1.950000000000001177e-01,1.050903647473004909e+01,6.066006379453870778e+00,-3.891841158552907770e-09,0.000000000000000000e+00,2.338206231772534716e-07
1.975000000000001199e-01,1.052425778890642860e+01,6.165360927865509488e+00,-3.857134517302986475e-09,0.000000000000000000e+00,2.466708903727980701e-07
2.000000000000001221e-01,1.053972772526056723e+01,6.265130887771206858e+00,4.272698151958224544e-09,0.000000000000000000e+00,2.599582365239849705e-07
2.025000000000001243e-01,1.055544732193699353e+01,6.365311683911604845e+00,1.651305548362229108e-09,0.000000000000000000e+00,2.736615220692508119e-07
2.050000000000001266e-01,1.057141760122767948e+01,6.465898732898195611e+00,1.445556244708091521e-11,0.000000000000000000e+00,2.877987492795852317e-07
2.075000000000001288e-01,1.058763957863948946e+01,6.566891810535093299e+00,4.919465413071494077e-10,0.000000000000000000e+00,3.023782213094205968e-07
2.100000000000001310e-01,1.060411426911165123e+01,6.668290680029948625e+00,-2.524425751669885366e-09,0.000000000000000000e+00,3.173895190373286501e-07
2.125000000000001332e-01,1.062084275558430591e+01,6.769975450487438984e+00,-4.471592950990569848e-09,0.000000000000000000e+00,3.328587973271140205e-07
2.150000000000001354e-01,1.063782537056385991e+01,6.871460732607366673e+00,-7.968224886101206276e-09,0.000000000000000000e+00,3.487925144224373032e-07
2.175000000000001377e-01,1.065506155483700468e+01,6.972692514139160913e+00,-9.735478700187557795e-09,0.000000000000000000e+00,3.652064266775889608e-07
2.200000000000001399e-01,1.067255067452155792e+01,7.073670562673508577e+00,-6.825337966914190091e-09,0.000000000000000000e+00,3.821130334015411723e-07
2.225000000000001421e-01,1.069029209515156253e+01,7.174394640972574955e+00,-9.833126291496055560e-09,0.000000000000000000e+00,3.995092918854026706e-07
2.250000000000001443e-01,1.070828518166531929e+01,7.274864507162352112e+00,-1.694547523667747602e-08,0.000000000000000000e+00,4.173972754181204836e-07
2.275000000000001465e-01,1.072652929839390623e+01,7.375079914926279123e+00,-1.808949536289799796e-08,0.000000000000000000e+00,4.358053720097417027e-07
2.300000000000001488e-01,1.074502380905018128e+01,7.475040613712193860e+00,-2.655375080361583878e-08,0.000000000000000000e+00,4.547390795205657518e-07
2.325000000000001510e-01,1.076376807671831948e+01,7.574746348938731444e+00,-3.537415587399936883e-08,0.000000000000000000e+00,4.742284252762370677e-07
2.350000000000001532e-01,1.078276146384385648e+01,7.674196862217083748e+00,-3.652814214038445492e-08,0.000000000000000000e+00,4.942997374899404513e-07
2.375000000000001554e-01,1.080200333222428988e+01,7.773391891552890343e+00,-4.305929078504545666e-08,0.000000000000000000e+00,5.149627974909111613e-07
2.400000000000001577e-01,1.082149304300018322e+01,7.872331171561819829e+00,-4.332313444775318313e-08,0.000000000000000000e+00,5.362394937422229465e-07
2.425000000000001599e-01,1.084122995664680822e+01,7.971014433691880896e+00,-4.417833135923801182e-08,0.000000000000000000e+00,5.581348735321439796e-07
2.450000000000001621e-01,1.086121343296636432e+01,8.069441406451947074e+00,-4.096496270295444057e-08,0.000000000000000000e+00,5.806502230138579517e-07
2.475000000000001643e-01,1.088144283108075783e+01,8.167611815640904993e+00,-5.816010525356492738e-08,0.000000000000000000e+00,6.037838359692187856e-07
2.500000000000001665e-01,1.090191750942494942e+01,8.265525384569700762e+00,-6.579070748603715920e-08,0.000000000000000000e+00,6.275807390412346684e-07
2.525000000000001688e-01,1.092263682613500819e+01,8.363187913316824762e+00,-6.662855441853788267e-08,0.000000000000000000e+00,6.520632012110613354e-07
2.550000000000001710e-01,1.094360015991893498e+01,8.460605018732726634e+00,-5.284903642540018608e-08,0.000000000000000000e+00,6.772244820381900997e-07
2.575000000000001732e-01,1.096480689690577748e+01,8.557776144762620163e+00,-4.950578182768434543e-08,0.000000000000000000e+00,7.030357572606151914e-07
2.600000000000001754e-01,1.098625642183187168e+01,8.654700731223218924e+00,-5.546467911482499825e-08,0.000000000000000000e+00,7.294814648171168634e-07
2.625000000000001776e-01,1.100794811803108253e+01,8.751378214848566373e+00,-6.193034779171022192e-08,0.000000000000000000e+00,7.565811330518034197e-07
2.650000000000001799e-01,1.102988136742772696e+01,8.847808030387705358e+00,-5.291271652554976552e-08,0.000000000000000000e+00,7.843463212667442814e-07
2.675000000000001821e-01,1.105205555053225375e+01,8.943989611736990142e+00,-4.971589240697172841e-08,0.000000000000000000e+00,8.127502323932470793e-07
2.700000000000001843e-01,1.107447004643974786e+01,9.039922393102555631e+00,-4.825962119544261372e-08,0.000000000000000000e+00,8.417872613458779494e-07
2.725000000000001865e-01,1.109712423283138527e+01,9.135605810187918507e+00,-3.693813465036879718e-08,0.000000000000000000e+00,8.714403592919359456e-07
2.750000000000001887e-01,1.112001748597886674e+01,9.231039301408140219e+00,-4.173867386074130106e-08,0.000000000000000000e+00,9.016845323463187248e-07
2.775000000000001910e-01,1.114314918075188210e+01,9.326222309134527322e+00,-5.641243091563252496e-08,0.000000000000000000e+00,9.325355970074653519e-07
2.800000000000001932e-01,1.116651869062872926e+01,9.421154280963884631e+00,-6.519512139204672271e-08,0.000000000000000000e+00,9.640188236981118409e-07
2.825000000000001954e-01,1.119012538771009879e+01,9.515834671015781510e+00,-7.400489704309048859e-08,0.000000000000000000e+00,9.961529882715731849e-07
2.850000000000001976e-01,1.121396852995686544e+01,9.610064190626538050e+00,-7.291682621455995166e-08,0.000000000000000000e+00,1.028996454853139913e-06
2.875000000000001998e-01,1.123804710472555968e+01,9.704044818850288578e+00,-8.238713528724816409e-08,0.000000000000000000e+00,1.062545170551925343e-06
2.900000000000002021e-01,1.126236048963180636e+01,9.797776276929596406e+00,-6.918544553399443172e-08,0.000000000000000000e+00,1.096814380146717851e-06
2.925000000000002043e-01,1.128690806159219662e+01,9.891258282578718308e+00,-6.221303180141930578e-08,0.000000000000000000e+00,1.131769229411056180e-06
2.950000000000002065e-01,1.131168919681597451e+01,9.984490550917849205e+00,-5.427490055402189956e-08,0.000000000000000000e+00,1.167394048095180503e-06
2.975000000000002087e-01,1.133670327079910756e+01,1.007747279548640407e+01,-3.919007890040188657e-08,0.000000000000000000e+00,1.203669581132306645e-06
3.000000000000002109e-01,1.136194965832093295e+01,1.017020472930094144e+01,-3.506630241321569416e-08,0.000000000000000000e+00,1.240555114996654591e-06
3.025000000000002132e-01,1.138742773323592594e+01,1.026268281024144713e+01,-3.819855387351154451e-08,0.000000000000000000e+00,1.278034661996760986e-06
3.050000000000002154e-01,1.141313685728224137e+01,1.035490356776154641e+01,-4.965946786717034310e-08,0.000000000000000000e+00,1.316110648047532173e-06
3.075000000000002176e-01,1.143907638704942720e+01,1.044686682186766902e+01,-3.478957334133123122e-08,0.000000000000000000e+00,1.354801542140396575e-06
3.100000000000002198e-01,1.146524567867855993e+01,1.053857239535267176e+01,-3.403451736204860447e-08,0.000000000000000000e+00,1.394077316619981535e-06
3.125000000000002220e-01,1.149164408786941927e+01,1.063002011415789205e+01,-2.200840153988456617e-08,0.000000000000000000e+00,1.433930490105207640e-06
3.150000000000002243e-01,1.151827096988855281e+01,1.072120980772558596e+01,-3.553399082021884467e-08,0.000000000000000000e+00,1.474331035670109618e-06
3.175000000000002265e-01,1.154512567957823777e+01,1.081214130935417117e+01,-4.099140114970426398e-08,0.000000000000000000e+00,1.515295436910731821e-06
3.200000000000002287e-01,1.157220757136630240e+01,1.090281445654819414e+01,-2.531882472544582130e-08,0.000000000000000000e+00,1.556824163570769499e-06
3.225000000000002309e-01,1.159951599927686061e+01,1.099322909136920323e+01,-1.736089887383513070e-08,0.000000000000000000e+00,1.598885325028657746e-06
3.250000000000002331e-01,1.162705031694188129e+01,1.108338506078539254e+01,-1.111121798644539104e-08,0.000000000000000000e+00,1.641461579265843983e-06
3.275000000000002354e-01,1.165480987761366194e+01,1.117328221702469193e+01,-2.099975236646618392e-08,0.000000000000000000e+00,1.684527594600149172e-06
