Time (s),Altitude (m),Velocity (m/s),Angular Velocity (rad/s),Fin Cant Angle (deg)
0.000000000000000000e+00,1.000000000000000000e+01,0.000000000000000000e+00,0.000000000000000000e+00,0.000000000000000000e+00
1.000000000000000021e-03,9.999997797171108260e+00,-8.962182430810832282e-03,0.000000000000000000e+00,0.000000000000000000e+00
2.000000000000000042e-03,9.999987008914928310e+00,-1.626524355746050352e-02,0.000000000000000000e+00,0.000000000000000000e+00
3.000000000000000062e-03,9.999969294423886268e+00,-2.190887017938984369e-02,0.000000000000000000e+00,0.000000000000000000e+00
4.000000000000000083e-03,9.999946313140698706e+00,-2.589302613066568268e-02,2.474322797799235039e-17,0.000000000000000000e+00
5.000000000000000104e-03,9.999919724544248822e+00,-2.821767530292746892e-02,-2.676197227651875926e-15,0.000000000000000000e+00
6.000000000000000125e-03,9.999891188149682364e+00,-2.888278117869036432e-02,5.245680698682781702e-15,0.000000000000000000e+00
7.000000000000000146e-03,9.999862363508380980e+00,-2.788830784479704936e-02,1.257781652854014542e-15,0.000000000000000000e+00
8.000000000000000167e-03,9.999834910207635374e+00,-2.523421965918968765e-02,3.419491059716895178e-14,0.000000000000000000e+00
9.000000000000001055e-03,9.999810487870449904e+00,-2.092048104876446241e-02,5.050573043101137441e-14,0.000000000000000000e+00
1.000000000000000194e-02,9.999790756155483962e+00,-1.494705547938504978e-02,6.438020272272061155e-14,0.000000000000000000e+00
1.100000000000000283e-02,9.999777374757897519e+00,-7.313906840096372035e-03,1.233432308460980212e-13,0.000000000000000000e+00
1.200000000000000372e-02,9.999772003408960330e+00,1.979000985661190544e-03,-6.953880194911572073e-14,0.000000000000000000e+00
1.300000000000000461e-02,9.999776301876124762e+00,1.293170424855312819e-02,-1.228923259772495970e-13,0.000000000000000000e+00
1.400000000000000550e-02,9.999791929962970727e+00,2.554423895164588398e-02,-1.865800158841857233e-13,0.000000000000000000e+00
1.500000000000000638e-02,9.999820547509139956e+00,3.981664121918365717e-02,-3.235906465445661923e-13,0.000000000000000000e+00
1.600000000000000727e-02,9.999863814390337780e+00,5.574894704992196248e-02,-2.838116722543963391e-13,0.000000000000000000e+00
1.700000000000000816e-02,9.999923390518322464e+00,7.334119255197825427e-02,-2.775284136255368666e-13,0.000000000000000000e+00
1.800000000000000905e-02,1.000000093584097982e+01,9.259341364862976043e-02,-5.495613034260198075e-13,0.000000000000000000e+00
1.900000000000000994e-02,1.000009811034193596e+01,1.135056467027923677e-01,-7.542644692807874343e-13,0.000000000000000000e+00
2.000000000000001082e-02,1.000021657404152720e+01,1.360779277643320573e-01,-7.892507545280038622e-13,0.000000000000000000e+00
2.100000000000001171e-02,1.000035798699593670e+01,1.603102928421820950e-01,-1.155000198312655696e-12,0.000000000000000000e+00
2.200000000000001260e-02,1.000052400929734375e+01,1.862027778916000853e-01,-1.659260179901912740e-12,0.000000000000000000e+00
2.300000000000001349e-02,1.000071630107386689e+01,2.137554187993341015e-01,-1.161095768118458256e-12,0.000000000000000000e+00
2.400000000000001438e-02,1.000093650257248434e+01,2.421715456906285979e-01,-1.688633787094416756e-12,0.000000000000000000e+00
2.500000000000001527e-02,1.000118513536549436e+01,2.706544667904381973e-01,-2.828521270396350612e-12,0.000000000000000000e+00
2.600000000000001615e-02,1.000146226624776880e+01,2.992041850311621953e-01,-2.994779734007624206e-12,0.000000000000000000e+00
2.700000000000001704e-02,1.000176796201710161e+01,3.278207032924245756e-01,-2.566430038634281535e-12,0.000000000000000000e+00
2.800000000000001793e-02,1.000210228947415381e+01,3.565040243997437686e-01,-3.292634292519803635e-12,0.000000000000000000e+00
2.900000000000001882e-02,1.000246531542239836e+01,3.852541511232004390e-01,-3.028143906838493055e-12,0.000000000000000000e+00
3.000000000000001971e-02,1.000285710666806516e+01,4.140710861761110473e-01,-3.417787254926624062e-12,0.000000000000000000e+00
3.100000000000002059e-02,1.000327773002008414e+01,4.429548322136874772e-01,-2.634507846508568196e-12,0.000000000000000000e+00
3.200000000000002148e-02,1.000372725229002846e+01,4.719053917986553714e-01,-2.071693146024838801e-12,0.000000000000000000e+00
3.300000000000002237e-02,1.000420574029201859e+01,5.009227674986992396e-01,-1.987171492177241836e-12,0.000000000000000000e+00
3.400000000000002326e-02,1.000471326084273116e+01,5.300069617867716465e-01,-2.632559771307574509e-12,0.000000000000000000e+00
3.500000000000002415e-02,1.000524988076125155e+01,5.591579769793117993e-01,-2.518304491463688389e-12,0.000000000000000000e+00
3.600000000000002504e-02,1.000581566686906143e+01,5.883758155134141132e-01,-1.778384967061629638e-12,0.000000000000000000e+00
3.700000000000002592e-02,1.000641068599001748e+01,6.176604796678863973e-01,-2.391801424079014745e-12,0.000000000000000000e+00
3.800000000000002681e-02,1.000703500495024123e+01,6.470119716541679056e-01,-3.804050413241397750e-12,0.000000000000000000e+00
3.900000000000002770e-02,1.000768869057804977e+01,6.764302936150285994e-01,-5.649811283429116313e-12,0.000000000000000000e+00
4.000000000000002859e-02,1.000837180970388651e+01,7.059154476232814002e-01,-4.108909995519037523e-12,0.000000000000000000e+00
4.100000000000002948e-02,1.000908442916025187e+01,7.354674356805031010e-01,-3.586417068815528723e-12,0.000000000000000000e+00
4.200000000000003036e-02,1.000982661578163047e+01,7.650862597157673806e-01,-2.949272351446312131e-12,0.000000000000000000e+00
4.300000000000003125e-02,1.001059843640442004e+01,7.947719215843970231e-01,-3.913065939831598069e-12,0.000000000000000000e+00
4.400000000000003214e-02,1.001139995786685866e+01,8.245244230667260199e-01,-5.793436819547137539e-12,0.000000000000000000e+00
4.500000000000003303e-02,1.001223124700894296e+01,8.543437658668852075e-01,-4.504617427571452061e-12,0.000000000000000000e+00
4.600000000000003392e-02,1.001309237067236069e+01,8.842299516116076674e-01,-4.676236470082218862e-12,0.000000000000000000e+00
4.700000000000003481e-02,1.001398339570040541e+01,9.141829818490538884e-01,-5.372882462090390733e-12,0.000000000000000000e+00
4.800000000000003569e-02,1.001490438893790191e+01,9.442028580476646837e-01,-6.482642971256334465e-12,0.000000000000000000e+00
4.900000000000003658e-02,1.001585541723112449e+01,9.742895815950400884e-01,-8.044856573337089245e-12,0.000000000000000000e+00
5.000000000000003747e-02,1.001683654742771701e+01,1.004443153796848565e+00,-8.443119627599490059e-12,0.000000000000000000e+00
5.100000000000003836e-02,1.001784784637665915e+01,1.034663577479133512e+00,-8.323829188651424932e-12,0.000000000000000000e+00
5.200000000000003925e-02,1.001888938093047265e+01,1.064950855896197979e+00,-8.565972379177383120e-12,0.000000000000000000e+00
5.300000000000004013e-02,1.001996121794429762e+01,1.095304990838196879e+00,-5.871431931855159215e-12,0.000000000000000000e+00
5.400000000000004102e-02,1.002106342427505759e+01,1.125725984067333041e+00,-8.749792659307029462e-12,0.000000000000000000e+00
5.500000000000004191e-02,1.002219606678143293e+01,1.156213837318127657e+00,-8.705656779934910301e-12,0.000000000000000000e+00
5.600000000000004280e-02,1.002335921232383065e+01,1.186768552297659207e+00,-9.488230263204248973e-12,0.000000000000000000e+00
5.700000000000004369e-02,1.002455292776435947e+01,1.217390130685780614e+00,-6.084168725008528670e-12,0.000000000000000000e+00
5.800000000000004458e-02,1.002577727996680323e+01,1.248078574135318197e+00,-3.214938165857018994e-12,0.000000000000000000e+00
5.900000000000004546e-02,1.002703233579659070e+01,1.278833884272241317e+00,-2.373297160476187089e-12,0.000000000000000000e+00
6.000000000000004635e-02,1.002831816212077065e+01,1.309656062695810474e+00,1.729120337889829463e-12,0.000000000000000000e+00
6.100000000000004724e-02,1.002963482580798704e+01,1.340545110978711429e+00,-8.445294693871953744e-13,0.000000000000000000e+00
6.200000000000004813e-02,1.003098239372844880e+01,1.371501030667156673e+00,3.170247226278394874e-12,0.000000000000000000e+00
6.300000000000004208e-02,1.003236093275390495e+01,1.402523823280975357e+00,3.592983407367196326e-12,0.000000000000000000e+00
6.400000000000004297e-02,1.003377050975761975e+01,1.433613490313690786e+00,8.362535034548384498e-12,0.000000000000000000e+00
6.500000000000004385e-02,1.003521119161434427e+01,1.464770033232564161e+00,5.369365170192860279e-12,0.000000000000000000e+00
6.600000000000004474e-02,1.003668304520029153e+01,1.495993453478630109e+00,8.150876191784866175e-12,0.000000000000000000e+00
6.700000000000004563e-02,1.003818613739310805e+01,1.527283752466712219e+00,1.113534027739841730e-11,0.000000000000000000e+00
6.800000000000004652e-02,1.003972053507185080e+01,1.558640931585426159e+00,1.108023045693732569e-11,0.000000000000000000e+00
6.900000000000004741e-02,1.004128630511695874e+01,1.590064992197162130e+00,8.104693827402834531e-12,0.000000000000000000e+00
7.000000000000004829e-02,1.004288351441022797e+01,1.621555935638049784e+00,9.712091351885892674e-12,0.000000000000000000e+00
7.100000000000004918e-02,1.004451222983478331e+01,1.653113763217910481e+00,1.303305455633636009e-11,0.000000000000000000e+00
7.200000000000005007e-02,1.004617251827505520e+01,1.684738476220193570e+00,1.496068549500118031e-11,0.000000000000000000e+00
7.300000000000005096e-02,1.004786444661675127e+01,1.716430075901903107e+00,9.539766294728666477e-12,0.000000000000000000e+00
7.400000000000005185e-02,1.004958808174682794e+01,1.748188563493499048e+00,7.478394953671364040e-12,0.000000000000000000e+00
7.500000000000005274e-02,1.005134349055346910e+01,1.780013940198793776e+00,1.231150345161267359e-11,0.000000000000000000e+00
7.600000000000005362e-02,1.005313073992605588e+01,1.811906207194821983e+00,9.467700821618457190e-12,0.000000000000000000e+00
7.700000000000005451e-02,1.005494989675513828e+01,1.843865365631710551e+00,5.277668122869318245e-12,0.000000000000000000e+00
7.800000000000005540e-02,1.005680102793241204e+01,1.875891416632530229e+00,6.426184627132273944e-12,0.000000000000000000e+00
7.900000000000005629e-02,1.005868420035069022e+01,1.907984361293125319e+00,7.560345931258766241e-12,0.000000000000000000e+00
8.000000000000005718e-02,1.006059948090387302e+01,1.940144200681935827e+00,4.710250184024700172e-12,0.000000000000000000e+00
8.100000000000005806e-02,1.006254693648692644e+01,1.972370935839803829e+00,3.468029281189257867e-12,0.000000000000000000e+00
8.200000000000005895e-02,1.006452663399584857e+01,2.004664567779784967e+00,1.650854051649698735e-12,0.000000000000000000e+00
8.300000000000005984e-02,1.006653864032764467e+01,2.037025097486927727e+00,-5.037479119120908266e-12,0.000000000000000000e+00
8.400000000000006073e-02,1.006858302238029879e+01,2.069452525918026975e+00,-1.183256537665453055e-11,0.000000000000000000e+00
8.500000000000006162e-02,1.007065984705274708e+01,2.101946854001389475e+00,-2.016556961637822282e-11,0.000000000000000000e+00
8.600000000000006251e-02,1.007276918124484411e+01,2.134508082636582760e+00,-1.067214883383965193e-11,0.000000000000000000e+00
8.700000000000006339e-02,1.007491109185733968e+01,2.167136212694142028e+00,-9.194555055547005658e-12,0.000000000000000000e+00
8.800000000000006428e-02,1.007708564579184696e+01,2.199831245015295700e+00,3.707958656350900804e-12,0.000000000000000000e+00
8.900000000000006517e-02,1.007929290995087257e+01,2.232593180805260591e+00,3.915861932576367897e-12,0.000000000000000000e+00
9.000000000000006606e-02,1.008153295123794635e+01,2.265422020062631159e+00,5.672188128641223626e-12,0.000000000000000000e+00
9.100000000000006695e-02,1.008380583655676332e+01,2.298317763928568347e+00,1.348100052486469449e-11,0.000000000000000000e+00
9.200000000000006783e-02,1.008611163281209677e+01,2.331280413123989259e+00,2.084795382578484095e-11,0.000000000000000000e+00
9.300000000000006872e-02,1.008845040690943229e+01,2.364309968338872192e+00,2.093906002924846774e-11,0.000000000000000000e+00
9.400000000000006961e-02,1.009082222575493937e+01,2.397406430231913799e+00,2.065484129930377647e-11,0.000000000000000000e+00
9.500000000000007050e-02,1.009322715625543943e+01,2.430569799430148947e+00,1.115610676193232101e-11,0.000000000000000000e+00
9.600000000000007139e-02,1.009566526531837205e+01,2.463800076528541272e+00,1.190699259984597136e-11,0.000000000000000000e+00
9.700000000000007228e-02,1.009813661985176658e+01,2.497097262089594150e+00,2.137743857941435296e-11,0.000000000000000000e+00
9.800000000000007316e-02,1.010064128676420481e+01,2.530461356642919490e+00,5.681133297168080867e-12,0.000000000000000000e+00
9.900000000000007405e-02,1.010317933296479254e+01,2.563892360684803862e+00,4.644233253226541320e-12,0.000000000000000000e+00
1.000000000000000749e-01,1.010575082536312408e+01,2.597390274677751520e+00,-9.272079763855284212e-12,0.000000000000000000e+00
1.010000000000000758e-01,1.010835583086910994e+01,2.630955094126067095e+00,-3.392067162369640862e-11,0.000000000000000000e+00
1.020000000000000767e-01,1.011099441638608809e+01,2.664586814097686940e+00,-2.285162812131326506e-11,0.000000000000000000e+00
1.030000000000000776e-01,1.011366664881454724e+01,2.698285434442988517e+00,-1.033971675909771490e-11,0.000000000000000000e+00
1.040000000000000785e-01,1.011637259505481801e+01,2.732050954976644075e+00,-1.300035677601615615e-11,0.000000000000000000e+00
1.050000000000000794e-01,1.011911232200703559e+01,2.765883375477732109e+00,-7.632599035033882436e-14,0.000000000000000000e+00
1.060000000000000803e-01,1.012188589657110960e+01,2.799782695689852385e+00,-2.258537001338331613e-11,0.000000000000000000e+00
1.070000000000000812e-01,1.012469338564668497e+01,2.833748915321217865e+00,-2.724583477960120505e-11,0.000000000000000000e+00
1.080000000000000820e-01,1.012753485613310289e+01,2.867782034044764838e+00,-1.235028718441909257e-11,0.000000000000000000e+00
1.090000000000000829e-01,1.013041037492927465e+01,2.901882051300608722e+00,-8.930746737274082983e-13,0.000000000000000000e+00
1.100000000000000838e-01,1.013332000893373852e+01,2.936048966885403289e+00,-1.411551976095052459e-11,0.000000000000000000e+00
1.110000000000000847e-01,1.013626382504472367e+01,2.970282780366889863e+00,-1.228547562826800175e-11,0.000000000000000000e+00
1.120000000000000856e-01,1.013924189016002053e+01,3.004583491277970531e+00,-2.308283526974716917e-11,0.000000000000000000e+00
1.130000000000000865e-01,1.014225427117694345e+01,3.038951099116813825e+00,-2.484496098723619214e-11,0.000000000000000000e+00
1.140000000000000874e-01,1.014530103499229696e+01,3.073385603346955985e+00,-1.750888797749250659e-11,0.000000000000000000e+00
1.150000000000000883e-01,1.014838224850234205e+01,3.107887003397403092e+00,-4.595018264234513562e-11,0.000000000000000000e+00
1.160000000000000892e-01,1.015149797860275882e+01,3.142455298662727881e+00,-4.168074052865910964e-11,0.000000000000000000e+00
1.170000000000000900e-01,1.015464829218861809e+01,3.177090488503199417e+00,-2.853644095074621190e-11,0.000000000000000000e+00
1.180000000000000909e-01,1.015783325615434052e+01,3.211792572244866140e+00,-4.484431101984417695e-11,0.000000000000000000e+00
1.190000000000000918e-01,1.016105293739366466e+01,3.246561549179653561e+00,-6.456390046189646213e-11,0.000000000000000000e+00
1.200000000000000927e-01,1.016430740279961498e+01,3.281397418565438873e+00,-6.320221927722664223e-11,0.000000000000000000e+00
1.210000000000000936e-01,1.016759671926446451e+01,3.316300179626159750e+00,-8.005612664772767445e-11,0.000000000000000000e+00
1.220000000000000945e-01,1.017092095367970472e+01,3.351269831551903167e+00,-9.801865751151068842e-11,0.000000000000000000e+00
1.230000000000000954e-01,1.017428017293600639e+01,3.386306373499007982e+00,-8.271814201901151845e-11,0.000000000000000000e+00
1.240000000000000963e-01,1.017767444392319121e+01,3.421409804590170634e+00,-7.882034568078555870e-11,0.000000000000000000e+00
1.250000000000000833e-01,1.018110383353019621e+01,3.456580123914519298e+00,-5.596811699378444240e-11,0.000000000000000000e+00
1.260000000000000842e-01,1.018456840864503832e+01,3.491817330527695606e+00,-1.662419750737944582e-11,0.000000000000000000e+00
1.270000000000000850e-01,1.018806823615478407e+01,3.527121423451969218e+00,-1.413222940223895326e-11,0.000000000000000000e+00
1.280000000000000859e-01,1.019160338294551416e+01,3.562492401676315978e+00,-1.326074375408605820e-11,0.000000000000000000e+00
1.290000000000000868e-01,1.019517391590229138e+01,3.597930264156485869e+00,-1.783218746802555389e-11,0.000000000000000000e+00
1.300000000000000877e-01,1.019877990190912520e+01,3.633435009815095817e+00,-2.814538697490850745e-11,0.000000000000000000e+00
1.310000000000000886e-01,1.020242140784894147e+01,3.669006637541727400e+00,-5.298370940740805819e-11,0.000000000000000000e+00
1.320000000000000895e-01,1.020609850060354695e+01,3.704645146193005445e+00,-7.226870048607394497e-11,0.000000000000000000e+00
1.330000000000000904e-01,1.020981124705359910e+01,3.740350534592651321e+00,-7.247586507584891008e-11,0.000000000000000000e+00
1.340000000000000913e-01,1.021355971407857055e+01,3.776122801531595297e+00,-8.112723357280592148e-11,0.000000000000000000e+00
1.350000000000000921e-01,1.021734396855671712e+01,3.811961945768044480e+00,-6.506434481307933477e-11,0.000000000000000000e+00
1.360000000000000930e-01,1.022116407736504762e+01,3.847867966027542330e+00,-2.795964242809681799e-11,0.000000000000000000e+00
1.370000000000000939e-01,1.022502010737928657e+01,3.883840861003044598e+00,-2.096227072482397463e-11,0.000000000000000000e+00
1.380000000000000948e-01,1.022891212547384576e+01,3.919880629355003254e+00,2.110721726158137497e-11,0.000000000000000000e+00
1.390000000000000957e-01,1.023284019852178872e+01,3.955987269711445542e+00,4.651561464926177180e-11,0.000000000000000000e+00
1.400000000000000966e-01,1.023680439339480053e+01,3.992160780668048581e+00,4.907582297787673717e-11,0.000000000000000000e+00
1.410000000000000975e-01,1.024080477696315405e+01,4.028401160788202873e+00,-2.129293572996019410e-14,0.000000000000000000e+00
1.420000000000000984e-01,1.024484141609567800e+01,4.064708408603070922e+00,2.841248386007486550e-11,0.000000000000000000e+00
1.430000000000000993e-01,1.024891437765972668e+01,4.101082522611630310e+00,-6.368803125983349193e-13,0.000000000000000000e+00
1.440000000000001001e-01,1.025302372852114452e+01,4.137523501280761629e+00,-7.363185634526483362e-13,0.000000000000000000e+00
1.450000000000001010e-01,1.025716953554423760e+01,4.174031343045311537e+00,2.543006440979311537e-12,0.000000000000000000e+00
1.460000000000001019e-01,1.026135186559173640e+01,4.210606046308130956e+00,-2.756966449876988393e-11,0.000000000000000000e+00
1.470000000000001028e-01,1.026557078552476909e+01,4.247247609440138127e+00,-7.486656928176865752e-11,0.000000000000000000e+00
1.480000000000001037e-01,1.026982636220282608e+01,4.283956030780393220e+00,-1.177493873417751273e-10,0.000000000000000000e+00
1.490000000000001046e-01,1.027411866248373151e+01,4.320731308636139190e+00,-1.162969351301900178e-10,0.000000000000000000e+00
1.500000000000001055e-01,1.027844775322360782e+01,4.357573441282900362e+00,-1.316347186305335810e-10,0.000000000000000000e+00
1.510000000000001064e-01,1.028281370127609762e+01,4.394482397532706308e+00,-1.893948962988418088e-10,0.000000000000000000e+00
1.520000000000001072e-01,1.028721657345137430e+01,4.431458143908513669e+00,-2.019730482790117203e-10,0.000000000000000000e+00
1.530000000000001081e-01,1.029165643653844420e+01,4.468500675474489370e+00,-1.619281002041135292e-10,0.000000000000000000e+00
1.540000000000001090e-01,1.029613335732136292e+01,4.505609987233278879e+00,-1.541246667392982288e-10,0.000000000000000000e+00
1.550000000000001099e-01,1.030064740257917499e+01,4.542786074128541962e+00,-1.609399141158851128e-10,0.000000000000000000e+00
1.560000000000001108e-01,1.030519863908585521e+01,4.580028931047686491e+00,-1.277253515277845473e-10,0.000000000000000000e+00
1.570000000000001117e-01,1.030978713361025534e+01,4.617338552824817199e+00,-9.454219845309601899e-11,0.000000000000000000e+00
