Time (s),Altitude (m),Velocity (m/s),Angular Velocity (rad/s),Fin Cant Angle (deg),Angular Position (deg)
0.000000000000000000e+00,1.000000000000000000e+01,0.000000000000000000e+00,0.000000000000000000e+00,0.000000000000000000e+00,0.000000000000000000e+00
2.500000000000000052e-03,9.999986426757764946e+00,-1.929407304993240382e-02,0.000000000000000000e+00,0.000000000000000000e+00,0.000000000000000000e+00
5.000000000000000104e-03,9.999930505828411142e+00,-2.821726037440920598e-02,0.000000000000000000e+00,0.000000000000000000e+00,0.000000000000000000e+00
7.499999999999999722e-03,9.999858165140253163e+00,-2.676830426676788527e-02,0.000000000000000000e+00,0.000000000000000000e+00,0.000000000000000000e+00
1.000000000000000021e-02,9.999795335372651195e+00,-1.494663961295551735e-02,0.000000000000000000e+00,0.000000000000000000e+00,0.000000000000000000e+00
1.250000000000000069e-02,9.999767948617810376e+00,7.248298769266529190e-03,0.000000000000000000e+00,0.000000000000000000e+00,0.000000000000000000e+00
1.500000000000000118e-02,9.999801938381017052e+00,3.981707604709698589e-02,0.000000000000000000e+00,0.000000000000000000e+00,0.000000000000000000e+00
1.750000000000000167e-02,9.999923239579981527e+00,8.276025488494290205e-02,0.000000000000000000e+00,0.000000000000000000e+00,0.000000000000000000e+00
2.000000000000000042e-02,1.000015778853350490e+01,1.360783650683340396e-01,0.000000000000000000e+00,0.000000000000000000e+00,0.000000000000000000e+00
2.249999999999999917e-02,1.000053152281187252e+01,1.997719372098364365e-01,0.000000000000000000e+00,0.000000000000000000e+00,0.000000000000000000e+00
2.499999999999999792e-02,1.000107120101293035e+01,2.706713450789425823e-01,0.000000000000000000e+00,0.000000000000000000e+00,0.000000000000000000e+00
2.749999999999999667e-02,1.000178836471584987e+01,3.421707890264676921e-01,0.000000000000000000e+00,0.000000000000000000e+00,0.000000000000000000e+00
2.999999999999999542e-02,1.000268451403096037e+01,4.140877303559679090e-01,0.000000000000000000e+00,0.000000000000000000e+00,0.000000000000000000e+00
3.249999999999999417e-02,1.000376069272380519e+01,4.864222093899135957e-01,0.000000000000000000e+00,0.000000000000000000e+00,0.000000000000000000e+00
3.499999999999999639e-02,1.000501794466155303e+01,5.591742671158529410e-01,0.000000000000000000e+00,0.000000000000000000e+00,0.000000000000000000e+00
3.749999999999999861e-02,1.000645731381409753e+01,6.323439446919351115e-01,0.000000000000000000e+00,0.000000000000000000e+00,0.000000000000000000e+00
4.000000000000000083e-02,1.000807984425429531e+01,7.059312832655746384e-01,0.000000000000000000e+00,0.000000000000000000e+00,0.000000000000000000e+00
4.250000000000000305e-02,1.000988658015785049e+01,7.799363238905715479e-01,0.000000000000000000e+00,0.000000000000000000e+00,0.000000000000000000e+00
4.500000000000000527e-02,1.001187856580304469e+01,8.543591074825923615e-01,0.000000000000000000e+00,0.000000000000000000e+00,0.000000000000000000e+00
4.750000000000000749e-02,1.001405684557036402e+01,9.291996747920165944e-01,0.000000000000000000e+00,0.000000000000000000e+00,0.000000000000000000e+00
5.000000000000000971e-02,1.001642246394207447e+01,1.004458066385569781e+00,-1.708167527957966353e-16,0.000000000000000000e+00,0.000000000000000000e+00
5.250000000000001193e-02,1.001897646549765852e+01,1.080134274809013473e+00,-1.268346534047639412e-15,0.000000000000000000e+00,0.000000000000000000e+00
5.500000000000001416e-02,1.002171989474152980e+01,1.156228274972508796e+00,8.811226072145884794e-16,0.000000000000000000e+00,3.255478715731260287e-16
5.750000000000001638e-02,1.002465379616142194e+01,1.232740082196075226e+00,-1.033678584907139677e-14,0.000000000000000000e+00,-1.242580622187095319e-16
6.000000000000001860e-02,1.002777921428234364e+01,1.309669709839801577e+00,2.102291153192995726e-14,0.000000000000000000e+00,5.627066820433734191e-16
6.250000000000001388e-02,1.003109719366185715e+01,1.387017169485702306e+00,-9.754573396579271569e-15,0.000000000000000000e+00,1.065310713615172251e-15
6.500000000000001610e-02,1.003460877888573144e+01,1.464782471797765773e+00,-4.116304514729085037e-14,0.000000000000000000e+00,3.818465097098291908e-15
6.750000000000001832e-02,1.003831501456548736e+01,1.542965625647864769e+00,-1.714041508844476019e-15,0.000000000000000000e+00,1.008694900381840522e-14
7.000000000000002054e-02,1.004221694533414322e+01,1.621566638573452401e+00,1.404582320008888299e-13,0.000000000000000000e+00,2.106688033776426289e-14
7.250000000000002276e-02,1.004631561584255728e+01,1.700585516554567356e+00,3.584776119517487273e-13,0.000000000000000000e+00,3.101559032684812233e-14
7.500000000000002498e-02,1.005061207075566365e+01,1.780022264152390177e+00,3.790743026889866362e-13,0.000000000000000000e+00,3.662722852122142612e-14
7.750000000000002720e-02,1.005510735474948092e+01,1.859876884813526976e+00,3.602263382749073589e-13,0.000000000000000000e+00,3.512050316286265362e-14
8.000000000000002942e-02,1.005980251250748125e+01,1.940149381086887725e+00,-1.625446767297511899e-13,0.000000000000000000e+00,2.363127458396570186e-14
8.250000000000003164e-02,1.006469858871963652e+01,2.020839754159253321e+00,-6.393869917047248962e-13,0.000000000000000000e+00,1.208760629612013977e-14
8.500000000000003386e-02,1.006979662807787079e+01,2.101948004131319436e+00,-6.906661491708850484e-13,0.000000000000000000e+00,1.184845508919723636e-14
8.750000000000003608e-02,1.007509767527377775e+01,2.183474130065690577e+00,-4.123573712071594649e-13,0.000000000000000000e+00,2.273974412600447932e-14
9.000000000000003830e-02,1.008060277499604851e+01,2.265418130032120114e+00,-1.185642413547902090e-12,0.000000000000000000e+00,4.281454915959198621e-14
9.250000000000004052e-02,1.008631297192801490e+01,2.347780001150089557e+00,-1.325612895678095704e-12,0.000000000000000000e+00,8.624041107977058867e-14
9.500000000000004274e-02,1.009222931074529939e+01,2.430559739628907590e+00,-1.803574639639230437e-12,0.000000000000000000e+00,1.590090087745534401e-13
9.750000000000004496e-02,1.009835283611355550e+01,2.513757340805444773e+00,-2.276916698869178741e-12,0.000000000000000000e+00,2.670969851469082150e-13
1.000000000000000472e-01,1.010468459268631136e+01,2.597372799139994193e+00,-2.954328409790919967e-12,0.000000000000000000e+00,4.209882170207712434e-13
1.025000000000000494e-01,1.011122562509275191e+01,2.681405950947958861e+00,-1.701931908621444107e-12,0.000000000000000000e+00,6.307527293302247434e-13
1.050000000000000516e-01,1.011797697737997304e+01,2.765856599151761852e+00,-2.238915296029167562e-12,0.000000000000000000e+00,8.893740622087863786e-13
1.075000000000000538e-01,1.012493969325882937e+01,2.850724690660069616e+00,-2.503559218262942121e-12,0.000000000000000000e+00,1.197540805524877466e-12
1.100000000000000561e-01,1.013211481630686173e+01,2.936010171570910821e+00,-3.091390529424221669e-12,0.000000000000000000e+00,1.564717843398756401e-12
1.125000000000000583e-01,1.013950338996683520e+01,3.021712988064328087e+00,-3.558579923070950114e-12,0.000000000000000000e+00,1.991702334633264851e-12
1.150000000000000605e-01,1.014710645754743190e+01,3.107833087282148909e+00,-3.669802990369029185e-12,0.000000000000000000e+00,2.483156572307208164e-12
1.175000000000000627e-01,1.015492506222619440e+01,3.194370418307340032e+00,-5.307591679816865530e-12,0.000000000000000000e+00,3.036091236556868445e-12
1.200000000000000649e-01,1.016296024705497558e+01,3.281324933242612651e+00,-7.866404451372793295e-12,0.000000000000000000e+00,3.662517831503830740e-12
1.225000000000000672e-01,1.017121305496813299e+01,3.368696588386008273e+00,-7.708362569328362576e-12,0.000000000000000000e+00,4.394620329834079340e-12
1.250000000000000555e-01,1.017968452875508056e+01,3.456485277912379139e+00,-7.747971965720754614e-12,0.000000000000000000e+00,5.298168060887537334e-12
1.275000000000000577e-01,1.018837571102048756e+01,3.544691035873027474e+00,-8.570272969999419450e-12,0.000000000000000000e+00,6.382915491071416766e-12
1.300000000000000600e-01,1.019728764442117352e+01,3.633313839152009006e+00,-9.170762668276384288e-12,0.000000000000000000e+00,7.663029292492875411e-12
1.325000000000000622e-01,1.020642137156160345e+01,3.722353674564758297e+00,-8.268917371783498867e-12,0.000000000000000000e+00,9.150345871456038898e-12
1.350000000000000644e-01,1.021577793501957032e+01,3.811810540392340130e+00,-9.585292916724400795e-12,0.000000000000000000e+00,1.083181473068523130e-11
1.375000000000000666e-01,1.022535837737572884e+01,3.901684447950807488e+00,-7.844010259141774310e-12,0.000000000000000000e+00,1.271500821191927815e-11
1.400000000000000688e-01,1.023516374124707262e+01,3.991975423177830606e+00,-1.106249181041192177e-11,0.000000000000000000e+00,1.477256763337968148e-11
1.425000000000000711e-01,1.024519506932437096e+01,4.082683508217193946e+00,-1.509236965348661721e-11,0.000000000000000000e+00,1.700967645633362850e-11
1.450000000000000733e-01,1.025545340441356323e+01,4.173808762981323639e+00,-1.708469448196571756e-11,0.000000000000000000e+00,1.943516667468666210e-11
1.475000000000000755e-01,1.026593978948103469e+01,4.265351266671727259e+00,-1.820689930750594138e-11,0.000000000000000000e+00,2.203557343168589605e-11
1.500000000000000777e-01,1.027665526770266169e+01,4.357311119237655461e+00,-1.855128364434163808e-11,0.000000000000000000e+00,2.477715588227533567e-11
1.525000000000000799e-01,1.028760088251951110e+01,4.449688501677242058e+00,-1.900990195663414757e-11,0.000000000000000000e+00,2.764269836576900244e-11
1.550000000000000822e-01,1.029877767785747977e+01,4.542483515579108122e+00,-1.945259372971052393e-11,0.000000000000000000e+00,3.062084603315459816e-11
1.575000000000000844e-01,1.031018669779938968e+01,4.635696167469214757e+00,-1.836684125378072031e-11,0.000000000000000000e+00,3.370572244728349695e-11
1.600000000000000866e-01,1.032182898644337854e+01,4.729326462199612280e+00,-1.786971722649351936e-11,0.000000000000000000e+00,3.687739850157752421e-11
1.625000000000000888e-01,1.033370558789877691e+01,4.823374403062039129e+00,-1.941563921554377283e-11,0.000000000000000000e+00,4.013161381395940536e-11
1.650000000000000910e-01,1.034581754628227479e+01,4.917839991884868311e+00,-2.199799614228601408e-11,0.000000000000000000e+00,4.347259990784521793e-11
1.675000000000000933e-01,1.035816590571431206e+01,5.012723229115910506e+00,-1.922823956756068030e-11,0.000000000000000000e+00,4.690843899748849854e-11
1.700000000000000955e-01,1.037075171031567500e+01,5.108024113893009144e+00,-1.592402607090053823e-11,0.000000000000000000e+00,5.042940124764910977e-11
1.725000000000000977e-01,1.038357600420425264e+01,5.203742644104348614e+00,-1.232343109424998237e-11,0.000000000000000000e+00,5.402312837125707086e-11
1.750000000000000999e-01,1.039663983149195303e+01,5.299878816439790086e+00,-7.230557879116983149e-12,0.000000000000000000e+00,5.768773525457626648e-11
1.775000000000001021e-01,1.040994423628172783e+01,5.396432626434402025e+00,-1.483621170374267685e-11,0.000000000000000000e+00,6.141357152375433434e-11
1.800000000000001044e-01,1.042349026266471412e+01,5.493404068505239657e+00,-1.045336501963051848e-11,0.000000000000000000e+00,6.523816497114971701e-11
1.825000000000001066e-01,1.043727895471745448e+01,5.590793135982286444e+00,-1.641113476516253292e-11,0.000000000000000000e+00,6.915793539462963390e-11
1.850000000000001088e-01,1.045131135649920218e+01,5.688599821134304513e+00,-6.198481241385131190e-12,0.000000000000000000e+00,7.320123702272332340e-11
1.875000000000001110e-01,1.046558851204927620e+01,5.786824115190032813e+00,-2.006562054980111011e-12,0.000000000000000000e+00,7.735996343626541056e-11
1.900000000000001132e-01,1.048011146538447314e+01,5.885466008355313861e+00,-2.130755640771692634e-11,0.000000000000000000e+00,8.164240534281369658e-11
1.925000000000001155e-01,1.049488126049652337e+01,5.984525489826480360e+00,-1.353602542328456939e-11,0.000000000000000000e+00,8.611755888035805858e-11
1.950000000000001177e-01,1.050989894134957048e+01,6.084002547800845484e+00,-1.879638894638041944e-11,0.000000000000000000e+00,9.078720450676537058e-11
1.975000000000001199e-01,1.052516555187768077e+01,6.183897169484038336e+00,-2.972374918494743370e-11,0.000000000000000000e+00,9.570259800068739054e-11
2.000000000000001221e-01,1.054068213598236525e+01,6.284209341094867618e+00,-2.243367498393756991e-11,0.000000000000000000e+00,1.009148238630376409e-10
2.025000000000001243e-01,1.055644973749190108e+01,6.384938455291496950e+00,-1.673125384637676315e-11,0.000000000000000000e+00,1.063342994615433651e-10
2.050000000000001266e-01,1.057246939814333864e+01,6.486083974967136179e+00,-2.843369640903692905e-11,0.000000000000000000e+00,1.118146661229382240e-10
2.075000000000001288e-01,1.058874215900581106e+01,6.587646004795495891e+00,-2.281816519154494020e-11,0.000000000000000000e+00,1.172259705327369675e-10
2.100000000000001310e-01,1.060526906142466252e+01,6.689624675660969189e+00,-1.078634113970031710e-11,0.000000000000000000e+00,1.223950316429349130e-10
2.125000000000001332e-01,1.062205121578276668e+01,6.791900339597460423e+00,-9.314483882304865033e-12,0.000000000000000000e+00,1.271250951351678750e-10
2.150000000000001354e-01,1.063908898203409237e+01,6.893987341717680017e+00,-1.180551806132551628e-11,0.000000000000000000e+00,1.312357748933217746e-10
2.175000000000001377e-01,1.065638182816315904e+01,6.995831987582137756e+00,-1.310340740884124032e-11,0.000000000000000000e+00,1.345414500401381169e-10
2.200000000000001399e-01,1.067392914838433704e+01,7.097434472083262946e+00,-1.455014777309526284e-11,0.000000000000000000e+00,1.368643274169034261e-10
2.225000000000001421e-01,1.069173033742017687e+01,7.198795025350067434e+00,-8.929295719496381143e-12,0.000000000000000000e+00,1.380244799958501964e-10
2.250000000000001443e-01,1.070978479058267396e+01,7.299913910085658486e+00,-1.188592849272230580e-11,0.000000000000000000e+00,1.380244799958501964e-10
2.275000000000001465e-01,1.072809190386724865e+01,7.400791434105789435e+00,-1.403606711857245560e-11,0.000000000000000000e+00,1.365058905363651780e-10
2.300000000000001488e-01,1.074665107406171494e+01,7.501427941242166497e+00,-9.197784487238049285e-12,0.000000000000000000e+00,1.336880982100816773e-10
2.325000000000001510e-01,1.076546169882183079e+01,7.601823834655385248e+00,-1.919040118111262256e-11,0.000000000000000000e+00,1.296539948377961360e-10
2.350000000000001532e-01,1.078452317696127771e+01,7.701979873300768276e+00,-5.859720665268676479e-12,0.000000000000000000e+00,1.244638158836126456e-10
2.375000000000001554e-01,1.080383490937332880e+01,7.801896928800608144e+00,-1.894801507110631410e-11,0.000000000000000000e+00,1.182406441315916986e-10
2.400000000000001577e-01,1.082339629903000500e+01,7.901575699067361569e+00,-3.312386579251167598e-11,0.000000000000000000e+00,1.110708529150009805e-10
2.425000000000001599e-01,1.084320675055154837e+01,8.001016712931884101e+00,-4.640162156708863706e-11,0.000000000000000000e+00,1.029970965058479285e-10
2.450000000000001621e-01,1.086326566978763353e+01,8.100220337243488444e+00,-3.964040490115717661e-11,0.000000000000000000e+00,9.410174147215961172e-11
2.475000000000001643e-01,1.088357246341641549e+01,8.199186783910127119e+00,-4.617134782215323764e-11,0.000000000000000000e+00,8.449037380380042938e-11
2.500000000000001665e-01,1.090412653856098046e+01,8.297916116589492574e+00,-3.630488840615284515e-11,0.000000000000000000e+00,7.426776243393466454e-11
2.525000000000001688e-01,1.092492730272962476e+01,8.396411955857491449e+00,-3.854632489578621926e-11,0.000000000000000000e+00,6.369916357568889586e-11
2.550000000000001710e-01,1.094597417584041921e+01,8.494676257440213263e+00,-3.419611029502675343e-11,0.000000000000000000e+00,5.302053743352703406e-11
2.575000000000001732e-01,1.096726657723267806e+01,8.592704938623523248e+00,-1.851798451980476616e-11,0.000000000000000000e+00,4.251173208872895839e-11
2.600000000000001754e-01,1.098880391486049746e+01,8.690492039007249758e+00,-2.690627849622506543e-12,0.000000000000000000e+00,3.253108925390447025e-11
2.625000000000001776e-01,1.101058558094245932e+01,8.788031406148729019e+00,4.147436965249497273e-12,0.000000000000000000e+00,2.336715717373919938e-11
2.650000000000001799e-01,1.103261095313083828e+01,8.885318542111736662e+00,1.307331364250766766e-11,0.000000000000000000e+00,1.521596708001125661e-11
2.675000000000001821e-01,1.105487939884404902e+01,8.982350684083135306e+00,2.136575097313116642e-11,0.000000000000000000e+00,8.243658249915397189e-12
2.700000000000001843e-01,1.107739027953219768e+01,9.079126679558090274e+00,1.087844449993130283e-11,0.000000000000000000e+00,2.589360648651737765e-12
2.725000000000001865e-01,1.110014295463488310e+01,9.175646868756416552e+00,1.529089468472089727e-11,0.000000000000000000e+00,-1.782969281686694630e-12
2.750000000000001887e-01,1.112313678524957616e+01,9.271912975037755800e+00,1.843269936300903116e-11,0.000000000000000000e+00,-4.819382870286300831e-12
2.775000000000001910e-01,1.114637113753842357e+01,9.367927909853333901e+00,1.928904057492946821e-11,0.000000000000000000e+00,-6.468743748896566816e-12
2.800000000000001932e-01,1.116984538556933693e+01,9.463694215830825485e+00,1.671825724696894722e-11,0.000000000000000000e+00,-6.696220686825153007e-12
2.825000000000001954e-01,1.119355890860638603e+01,9.559213207717077054e+00,1.557005765541986534e-11,0.000000000000000000e+00,-5.622635285117313987e-12
2.850000000000001976e-01,1.121751108901555405e+01,9.654485946474983038e+00,6.344908822249012156e-12,0.000000000000000000e+00,-3.403237447590998114e-12
2.875000000000001998e-01,1.124170131172216003e+01,9.749513338127520967e+00,1.556762933244954174e-11,0.000000000000000000e+00,-1.749467895403075382e-13
2.900000000000002021e-01,1.126612896382899009e+01,9.844296133650447089e+00,1.370075923419466649e-11,0.000000000000000000e+00,3.916434950803408595e-12
2.925000000000002043e-01,1.129079343423646975e+01,9.938834965355884066e+00,6.057956549446453032e-11,0.000000000000000000e+00,8.754764185048606373e-12
2.950000000000002065e-01,1.131569411336228015e+01,1.003313035975075174e+01,7.443759033207845054e-11,0.000000000000000000e+00,1.394529246532971909e-11
2.975000000000002087e-01,1.134083039288750250e+01,1.012718275692748549e+01,7.519683101406253142e-11,0.000000000000000000e+00,1.916346551377234269e-11
3.000000000000002109e-01,1.136620166545591992e+01,1.022099218101124052e+01,6.179728510419204382e-11,0.000000000000000000e+00,2.423026265850783180e-11
3.025000000000002132e-01,1.139180732348729563e+01,1.031455737717703158e+01,5.399882313420331420e-11,0.000000000000000000e+00,2.918284119482804188e-11
3.050000000000002154e-01,1.141764675518671801e+01,1.040787715232812438e+01,5.922607278275796932e-11,0.000000000000000000e+00,3.409103058967441663e-11
3.075000000000002176e-01,1.144371934696372151e+01,1.050095143965369004e+01,7.113827589834730862e-11,0.000000000000000000e+00,3.893447770483201251e-11
3.100000000000002198e-01,1.147002448506134265e+01,1.059378017328113408e+01,9.014385514597046314e-11,0.000000000000000000e+00,4.367975528665501337e-11
3.125000000000002220e-01,1.149656155555846659e+01,1.068636328827587434e+01,9.917496879331664314e-11,0.000000000000000000e+00,4.831608131961708319e-11
3.150000000000002243e-01,1.152332994437217195e+01,1.077870072064341223e+01,1.026257590114884528e-10,0.000000000000000000e+00,5.282064373244646801e-11
3.175000000000002265e-01,1.155032903726008442e+01,1.087079240733293339e+01,1.298139479538054200e-10,0.000000000000000000e+00,5.714772649675617294e-11
3.200000000000002287e-01,1.157755821982273581e+01,1.096263828623972003e+01,1.348753681154033458e-10,0.000000000000000000e+00,6.119987678455233674e-11
3.225000000000002309e-01,1.160501687750593192e+01,1.105423829620776388e+01,1.137326656418488171e-10,0.000000000000000000e+00,6.490382096092520821e-11
3.250000000000002331e-01,1.163270439560312752e+01,1.114559237703371686e+01,1.479468982681165299e-10,0.000000000000000000e+00,6.830489477137266933e-11
3.275000000000002354e-01,1.166062015925780848e+01,1.123670046947072976e+01,1.974907580991122569e-10,0.000000000000000000e+00,7.120767925257346404e-11
