Time (s),Altitude (m),Velocity (m/s),Angular Velocity (rad/s),Fin Cant Angle (deg)
0.000000000000000000e+00,1.000000000000000000e+01,0.000000000000000000e+00,9.993909892200466771e+00,0.000000000000000000e+00
1.000000000000000021e-03,9.999997794124711348e+00,-9.084026838376271437e-03,9.987773203991546112e+00,0.000000000000000000e+00
2.000000000000000042e-03,9.999986825640778676e+00,-1.675261158300294859e-02,9.981589741006807515e+00,0.000000000000000000e+00
3.000000000000000062e-03,9.999968510064700666e+00,-2.300542657679714720e-02,9.975359457737642543e+00,0.000000000000000000e+00
4.000000000000000083e-03,9.999944263177724224e+00,-2.784242119581257363e-02,9.969082777389044026e+00,0.000000000000000000e+00
5.000000000000000104e-03,9.999915500811720648e+00,-3.126354481439959365e-02,9.962759693300267116e+00,0.000000000000000000e+00
6.000000000000000125e-03,9.999883638849185630e+00,-3.326874680547748514e-02,9.956390093595848256e+00,0.000000000000000000e+00
7.000000000000000146e-03,9.999850093223242808e+00,-3.385797654040376831e-02,9.949974104792008944e+00,0.000000000000000000e+00
8.000000000000000167e-03,9.999816279917647321e+00,-3.303118338857795322e-02,9.943512206368769313e+00,0.000000000000000000e+00
9.000000000000001055e-03,9.999783614966782253e+00,-3.078831671691099892e-02,9.937004312839537334e+00,0.000000000000000000e+00
1.000000000000000194e-02,9.999753514455665737e+00,-2.712932588928583869e-02,9.930450314470881779e+00,0.000000000000000000e+00
1.100000000000000283e-02,9.999727394519952739e+00,-2.205416026612933358e-02,9.923850545218675379e+00,0.000000000000000000e+00
1.200000000000000372e-02,9.999706671345938602e+00,-1.556276920421320424e-02,9.917205264193565739e+00,0.000000000000000000e+00
1.300000000000000461e-02,9.999692761170564381e+00,-7.655102056797537594e-03,9.910514316106210586e+00,0.000000000000000000e+00
1.400000000000000550e-02,9.999687080281415064e+00,1.668891825769631965e-03,9.903777549679981362e+00,0.000000000000000000e+00
1.500000000000000638e-02,9.999691045016728452e+00,1.240926309488648259e-02,9.896995429317360760e+00,0.000000000000000000e+00
1.600000000000000727e-02,9.999706071765393389e+00,2.456606240186573475e-02,9.890167883983158603e+00,0.000000000000000000e+00
1.700000000000000816e-02,9.999733576966949755e+00,3.813934039536253512e-02,9.883294634189788042e+00,0.000000000000000000e+00
1.800000000000000905e-02,9.999774977111581364e+00,5.312914771798317448e-02,9.876375560897670880e+00,0.000000000000000000e+00
1.900000000000000994e-02,9.999831688740115965e+00,6.953553500200110316e-02,9.869410981845026853e+00,0.000000000000000000e+00
2.000000000000001082e-02,9.999905128444009250e+00,8.735855286411856047e-02,9.862400507183542331e+00,0.000000000000000000e+00
2.100000000000001171e-02,9.999996712865327098e+00,1.065982518992183159e-01,9.855343669282056851e+00,0.000000000000000000e+00
2.200000000000001260e-02,1.000010785869672425e+01,1.272546826730604208e-01,9.848240557826470010e+00,0.000000000000000000e+00
2.300000000000001349e-02,1.000023998268141234e+01,1.493278957138856056e-01,9.841090932967890836e+00,0.000000000000000000e+00
2.400000000000001438e-02,1.000039450161311905e+01,1.728179415028985866e-01,9.833894152492808516e+00,0.000000000000000000e+00
2.500000000000001527e-02,1.000057283233604188e+01,1.977248704636137833e-01,9.826649738442240434e+00,0.000000000000000000e+00
2.600000000000001615e-02,1.000077639174478428e+01,2.240487329500522873e-01,9.819357666591582046e+00,0.000000000000000000e+00
2.700000000000001704e-02,1.000100659678428627e+01,2.517895792337890848e-01,9.812017114753039948e+00,0.000000000000000000e+00
2.800000000000001793e-02,1.000126486444973395e+01,2.809474594898596633e-01,9.804627273468497606e+00,0.000000000000000000e+00
2.900000000000001882e-02,1.000155261178646526e+01,3.115224237815437669e-01,9.797187912511605035e+00,0.000000000000000000e+00
3.000000000000001971e-02,1.000187125588984927e+01,3.435145220440521396e-01,9.789698153940801006e+00,0.000000000000000000e+00
3.100000000000002059e-02,1.000222221390515998e+01,3.769238040671504808e-01,9.782156886669326923e+00,0.000000000000000000e+00
3.200000000000002148e-02,1.000260690302742006e+01,4.117503194767641039e-01,9.774563722886510320e+00,0.000000000000000000e+00
3.300000000000002237e-02,1.000302674050123741e+01,4.479941177156135379e-01,9.766917603744674992e+00,0.000000000000000000e+00
3.400000000000002326e-02,1.000348314362061508e+01,4.856552480229409108e-01,9.759217243991168189e+00,0.000000000000000000e+00
3.500000000000002415e-02,1.000397752972874521e+01,5.247337594133910654e-01,9.751462016491037943e+00,0.000000000000000000e+00
3.600000000000002504e-02,1.000451131621777456e+01,5.652297006551205705e-01,9.743650604510072810e+00,0.000000000000000000e+00
3.700000000000002592e-02,1.000508592052855761e+01,6.071431202472141742e-01,9.735781627273508931e+00,0.000000000000000000e+00
3.800000000000002681e-02,1.000570276015038118e+01,6.504740663964916347e-01,9.727854307359169894e+00,0.000000000000000000e+00
3.900000000000002770e-02,1.000636325262066606e+01,6.952225869937930236e-01,9.719866888221465828e+00,0.000000000000000000e+00
4.000000000000002859e-02,1.000706881552464544e+01,7.413887295898388130e-01,9.711818299707369206e+00,0.000000000000000000e+00
4.100000000000002948e-02,1.000782086649501856e+01,7.889725413707578960e-01,9.703707129611187199e+00,0.000000000000000000e+00
4.200000000000003036e-02,1.000862082321158297e+01,8.379740691333839031e-01,9.695531653360557556e+00,0.000000000000000000e+00
4.300000000000003125e-02,1.000947010340083665e+01,8.883933592604231766e-01,9.687290812859638223e+00,0.000000000000000000e+00
4.400000000000003214e-02,1.001037012483556055e+01,9.402304576955947679e-01,9.678982667813377461e+00,0.000000000000000000e+00
4.500000000000003303e-02,1.001132228892673659e+01,9.928290731004764114e-01,9.670606560542086783e+00,0.000000000000000000e+00
4.600000000000003392e-02,1.001232707552095569e+01,1.045532886147875429e+00,9.662161434900117030e+00,0.000000000000000000e+00
4.700000000000003481e-02,1.001338458981663670e+01,1.098341900280112915e+00,9.653646954279414771e+00,0.000000000000000000e+00
4.800000000000003569e-02,1.001449493701560378e+01,1.151256118792855832e+00,9.645062226745176659e+00,0.000000000000000000e+00
4.900000000000003658e-02,1.001565822232294778e+01,1.204275544841854284e+00,9.636407060774732969e+00,0.000000000000000000e+00
5.000000000000003747e-02,1.001687455094688417e+01,1.257400181449400023e+00,9.627701386688221064e+00,0.000000000000000000e+00
5.100000000000003836e-02,1.001814402809858962e+01,1.310630030284450243e+00,9.618964821980473090e+00,0.000000000000000000e+00
5.200000000000003925e-02,1.001946675899031902e+01,1.363965092507823273e+00,9.610196524274774887e+00,0.000000000000000000e+00
5.300000000000004013e-02,1.002084284883593135e+01,1.417405370214694038e+00,9.601395011990129902e+00,0.000000000000000000e+00
5.400000000000004102e-02,1.002227240285134435e+01,1.470950865349599956e+00,9.592559018777501834e+00,0.000000000000000000e+00
5.500000000000004191e-02,1.002375552625439070e+01,1.524601579712733468e+00,9.583687788173829603e+00,0.000000000000000000e+00
5.600000000000004280e-02,1.002529232426467054e+01,1.578357514966157948e+00,9.574780089613165401e+00,0.000000000000000000e+00
5.700000000000004369e-02,1.002688290210341648e+01,1.632218672639942803e+00,9.565834744910169718e+00,0.000000000000000000e+00
5.800000000000004458e-02,1.002852736499336217e+01,1.686185054138206407e+00,9.556851121788451309e+00,0.000000000000000000e+00
5.900000000000004546e-02,1.003022581815861969e+01,1.740256660745066908e+00,9.547828112983770765e+00,0.000000000000000000e+00
6.000000000000004635e-02,1.003197836682456057e+01,1.794433493630489762e+00,9.538764737582248188e+00,0.000000000000000000e+00
6.100000000000004724e-02,1.003378511621769853e+01,1.848715553856028260e+00,9.529660528739823278e+00,0.000000000000000000e+00
6.200000000000004813e-02,1.003564617156558647e+01,1.903102842380453907e+00,9.520514364736360591e+00,0.000000000000000000e+00
6.300000000000004208e-02,1.003756163809671698e+01,1.957595360065269352e+00,9.511325597052032066e+00,0.000000000000000000e+00
6.400000000000004297e-02,1.003953162104042107e+01,2.012193107680102067e+00,9.502093941278630496e+00,0.000000000000000000e+00
6.500000000000004385e-02,1.004155622562678118e+01,2.066896085907975689e+00,9.492818385643477797e+00,0.000000000000000000e+00
6.600000000000004474e-02,1.004363555708654232e+01,2.121704295350455016e+00,9.483498774151025046e+00,0.000000000000000000e+00
6.700000000000004563e-02,1.004576972065103568e+01,2.176617736532662217e+00,9.474134217928547486e+00,0.000000000000000000e+00
6.800000000000004652e-02,1.004795882155210229e+01,2.231636409908162033e+00,9.464724681926478311e+00,0.000000000000000000e+00
6.900000000000004741e-02,1.005020296502202015e+01,2.286760315863712201e+00,9.455269740567855408e+00,0.000000000000000000e+00
7.000000000000004829e-02,1.005250225629344030e+01,2.341989454723882425e+00,9.445768986938510636e+00,0.000000000000000000e+00
7.100000000000004918e-02,1.005485680059932463e+01,2.397323826755537901e+00,9.436222584230375077e+00,0.000000000000000000e+00
7.200000000000005007e-02,1.005726670317289262e+01,2.452763432172184288e+00,9.426630051466222682e+00,0.000000000000000000e+00
7.300000000000005096e-02,1.005973206924756269e+01,2.508308271138180778e+00,9.416991707026836522e+00,0.000000000000000000e+00
7.400000000000005185e-02,1.006225300405691137e+01,2.563958343772811954e+00,9.407307228453701597e+00,0.000000000000000000e+00
7.500000000000005274e-02,1.006482961283462174e+01,2.619713650154227746e+00,9.397577080182376363e+00,0.000000000000000000e+00
7.600000000000005362e-02,1.006746200081444975e+01,2.675574190323246615e+00,9.387633022687699835e+00,0.000000000000000000e+00
7.700000000000005451e-02,1.007015027323018153e+01,2.731539964287021505e+00,9.377435643751159233e+00,0.000000000000000000e+00
7.800000000000005540e-02,1.007289453531560675e+01,2.787610972022574796e+00,9.367151359271165489e+00,0.000000000000000000e+00
7.900000000000005629e-02,1.007569489230448490e+01,2.843787213480199583e+00,9.356816796700686112e+00,0.000000000000000000e+00
8.000000000000005718e-02,1.007855144943051862e+01,2.900068688586727284e+00,9.346431155025502591e+00,0.000000000000000000e+00
8.100000000000005806e-02,1.008146431192733594e+01,2.956455397248672679e+00,9.335993649307102515e+00,0.000000000000000000e+00
8.200000000000005895e-02,1.008443358502846721e+01,3.012947339355242615e+00,9.325503510664514550e+00,0.000000000000000000e+00
8.300000000000005984e-02,1.008745937396732550e+01,3.069544514781224365e+00,9.314959986253221302e+00,0.000000000000000000e+00
8.400000000000006073e-02,1.009054178397720136e+01,3.126246923389751853e+00,9.304362339235398238e+00,0.000000000000000000e+00
8.500000000000006162e-02,1.009368092029124142e+01,3.183054565034947103e+00,9.293709848739602819e+00,0.000000000000000000e+00
8.600000000000006251e-02,1.009687688814244844e+01,3.239967439564444440e+00,9.283001809803986148e+00,0.000000000000000000e+00
8.700000000000006339e-02,1.010012979276367062e+01,3.296985546821796120e+00,9.272237533327688297e+00,0.000000000000000000e+00
8.800000000000006428e-02,1.010343973938759810e+01,3.354108886648768273e+00,9.261416345990877375e+00,0.000000000000000000e+00
8.900000000000006517e-02,1.010680683324676643e+01,3.411337458887522711e+00,9.250537590186358017e+00,0.000000000000000000e+00
9.000000000000006606e-02,1.011023117957355133e+01,3.468671263382692160e+00,9.239600623950217084e+00,0.000000000000000000e+00
9.100000000000006695e-02,1.011371288360017573e+01,3.526110299983347574e+00,9.228604820848211432e+00,0.000000000000000000e+00
9.200000000000006783e-02,1.011725205055871157e+01,3.583654568544865082e+00,9.217549569914345042e+00,0.000000000000000000e+00
9.300000000000006872e-02,1.012084878568108870e+01,3.641304068930692583e+00,9.206434275529780109e+00,0.000000000000000000e+00
9.400000000000006961e-02,1.012450319419910194e+01,3.699058801014019071e+00,9.195258357325290177e+00,0.000000000000000000e+00
9.500000000000007050e-02,1.012821538134442356e+01,3.756918764679348932e+00,9.184021250077989862e+00,0.000000000000000000e+00
9.600000000000007139e-02,1.013198545234861214e+01,3.814883959823986537e+00,9.172722403587377116e+00,0.000000000000000000e+00
9.700000000000007228e-02,1.013581351244312856e+01,3.872954386359433343e+00,9.161361282569375319e+00,0.000000000000000000e+00
9.800000000000007316e-02,1.013969966685934665e+01,3.931130044212699737e+00,9.149937366532403971e+00,0.000000000000000000e+00
9.900000000000007405e-02,1.014364402082857097e+01,3.989410933327529829e+00,9.138450149651395904e+00,0.000000000000000000e+00
1.000000000000000749e-01,1.014764667958205635e+01,4.047797053665550315e+00,9.126959559105477737e+00,0.000000000000000000e+00
1.010000000000000758e-01,1.015170774834946421e+01,4.106288343398543539e+00,9.115523263364563533e+00,0.000000000000000000e+00
1.020000000000000767e-01,1.015582733224958467e+01,4.164884701257182797e+00,9.104137433920197253e+00,0.000000000000000000e+00
1.030000000000000776e-01,1.016000553637668702e+01,4.223586108890978963e+00,9.092798456705674326e+00,0.000000000000000000e+00
1.040000000000000785e-01,1.016424246577693857e+01,4.282392616969469934e+00,9.081502387417980771e+00,0.000000000000000000e+00
1.050000000000000794e-01,1.016853822555033915e+01,4.341304223739092194e+00,9.070245267932071087e+00,0.000000000000000000e+00
1.060000000000000803e-01,1.017289292079534668e+01,4.400320928399126252e+00,9.059023129857958878e+00,0.000000000000000000e+00
1.070000000000000812e-01,1.017730665660984890e+01,4.459442731195640164e+00,9.047831998219734828e+00,0.000000000000000000e+00
1.080000000000000820e-01,1.018177953809223268e+01,4.518669633518431539e+00,9.036667895257076921e+00,0.000000000000000000e+00
1.090000000000000829e-01,1.018631167034255114e+01,4.578001638000664286e+00,9.025526844336599908e+00,0.000000000000000000e+00
1.100000000000000838e-01,1.019090315846379013e+01,4.637438748620845708e+00,9.014404873893093750e+00,0.000000000000000000e+00
1.110000000000000847e-01,1.019555410756323433e+01,4.696980970806783340e+00,9.003298021479793078e+00,0.000000000000000000e+00
1.120000000000000856e-01,1.020026462275394330e+01,4.756628311541125420e+00,8.992202337820311087e+00,0.000000000000000000e+00
1.130000000000000865e-01,1.020503480915632544e+01,4.816380779468045326e+00,8.981113890858477333e+00,0.000000000000000000e+00
1.140000000000000874e-01,1.020986477189983077e+01,4.876238385000609021e+00,8.970028769846992489e+00,0.000000000000000000e+00
1.150000000000000883e-01,1.021475461612473801e+01,4.936201140428336132e+00,8.958943089351173228e+00,0.000000000000000000e+00
1.160000000000000892e-01,1.021970444698405700e+01,4.996269060024471464e+00,8.947852993240585917e+00,0.000000000000000000e+00
1.170000000000000900e-01,1.022471436964553604e+01,5.056442160152450960e+00,8.936754658572215959e+00,0.000000000000000000e+00
1.180000000000000909e-01,1.022978448929377926e+01,5.116720459371047802e+00,8.925644299414809524e+00,0.000000000000000000e+00
1.190000000000000918e-01,1.023491491113245999e+01,5.177103978537680007e+00,8.914518170538793029e+00,0.000000000000000000e+00
1.200000000000000927e-01,1.024010574038664423e+01,5.237592740909378541e+00,8.903372570954507736e+00,0.000000000000000000e+00
1.210000000000000936e-01,1.024535708230521536e+01,5.298186772240915055e+00,8.892203847380981685e+00,0.000000000000000000e+00
1.220000000000000945e-01,1.025066904216338770e+01,5.358886100879603376e+00,8.881008397450493419e+00,0.000000000000000000e+00
1.230000000000000954e-01,1.025604172526532665e+01,5.419690757856328034e+00,8.869782672819345848e+00,0.000000000000000000e+00
1.240000000000000963e-01,1.026147523694684516e+01,5.480600776972362809e+00,8.858523182087589376e+00,0.000000000000000000e+00
1.250000000000000833e-01,1.026696968257819798e+01,5.541616194881584079e+00,8.847226493273801395e+00,0.000000000000000000e+00
1.260000000000000842e-01,1.027252516756692735e+01,5.602737051422394643e+00,8.835889234410331028e+00,0.000000000000000000e+00
1.270000000000000850e-01,1.027814179736147437e+01,5.663963390802710052e+00,8.824508097085706382e+00,0.000000000000000000e+00
1.280000000000000859e-01,1.028381967745499104e+01,5.725295259116177427e+00,8.813079839868189325e+00,0.000000000000000000e+00
1.290000000000000868e-01,1.028955891338724982e+01,5.786732705367960250e+00,8.801601290226209073e+00,0.000000000000000000e+00
1.300000000000000877e-01,1.029535961074934214e+01,5.848275807770987100e+00,8.790069346110250592e+00,0.000000000000000000e+00
1.310000000000000886e-01,1.030122187522249710e+01,5.909924673523653027e+00,8.778480977379103933e+00,0.000000000000000000e+00
1.320000000000000895e-01,1.030714581259292828e+01,5.971679398424684315e+00,8.766833227134020134e+00,0.000000000000000000e+00
1.330000000000000904e-01,1.031313152873942407e+01,6.033540064156045268e+00,8.755123212774419628e+00,0.000000000000000000e+00
1.340000000000000913e-01,1.031917912961933403e+01,6.095506738737043406e+00,8.743348127388149038e+00,0.000000000000000000e+00
1.350000000000000921e-01,1.032528871998582964e+01,6.157528704932433428e+00,8.731505372011646671e+00,0.000000000000000000e+00
1.360000000000000930e-01,1.033146033335108172e+01,6.219555228080429821e+00,8.719592480129090717e+00,0.000000000000000000e+00
1.370000000000000939e-01,1.033769397427819925e+01,6.281586330811451013e+00,8.707607062228520434e+00,0.000000000000000000e+00
1.380000000000000948e-01,1.034398964735019177e+01,6.343622023791058773e+00,8.695546805729630790e+00,0.000000000000000000e+00
1.390000000000000957e-01,1.035034735715808729e+01,6.405662306127309691e+00,8.683409474696189179e+00,0.000000000000000000e+00
1.400000000000000966e-01,1.035676710828947122e+01,6.467707165764381649e+00,8.671192909422529738e+00,0.000000000000000000e+00
1.410000000000000975e-01,1.036324890531740728e+01,6.529756579862836752e+00,8.658895025971489190e+00,0.000000000000000000e+00
1.420000000000000984e-01,1.036979275278973311e+01,6.591810515166894646e+00,8.646513815513310774e+00,0.000000000000000000e+00
1.430000000000000993e-01,1.037639865521873261e+01,6.653868928359113255e+00,8.634047343661860552e+00,0.000000000000000000e+00
1.440000000000001001e-01,1.038306661707114387e+01,6.715931766402871261e+00,8.621493749637382464e+00,0.000000000000000000e+00
1.450000000000001010e-01,1.038979664275852244e+01,6.777998966873062692e+00,8.608851245390615858e+00,0.000000000000000000e+00
1.460000000000001019e-01,1.039658873662791905e+01,6.840070458275397947e+00,8.596118114663616083e+00,0.000000000000000000e+00
1.470000000000001028e-01,1.040344290295288587e+01,6.902146160354718063e+00,8.583292711944935149e+00,0.000000000000000000e+00
1.480000000000001037e-01,1.041035914592478129e+01,6.964225984392703239e+00,8.570373461435467632e+00,0.000000000000000000e+00
1.490000000000001046e-01,1.041733746964437302e+01,7.026309833495363755e+00,8.557358855919435570e+00,0.000000000000000000e+00
1.500000000000001055e-01,1.042437787811365446e+01,7.088397603447629258e+00,8.544248863703446162e+00,0.000000000000000000e+00
1.510000000000001064e-01,1.043148037522909277e+01,7.150489258473957221e+00,8.531044711804735670e+00,0.000000000000000000e+00
1.520000000000001072e-01,1.043864496488882843e+01,7.212584829342576498e+00,8.517746841225161347e+00,0.000000000000000000e+00
1.530000000000001081e-01,1.044587165100730530e+01,7.274684309872903043e+00,8.504355697501273070e+00,0.000000000000000000e+00
1.540000000000001090e-01,1.045316043749277668e+01,7.336787693863413118e+00,8.490871730719121047e+00,0.000000000000000000e+00
1.550000000000001099e-01,1.046051132824729457e+01,7.398894975092604298e+00,8.477295395323281468e+00,0.000000000000000000e+00
1.560000000000001108e-01,1.046792432716668309e+01,7.461006147319919179e+00,8.463627150189344306e+00,0.000000000000000000e+00
1.570000000000001117e-01,1.047539943814052066e+01,7.523121204286725927e+00,8.449867458411503662e+00,0.000000000000000000e+00
1.580000000000001126e-01,1.048293666505212407e+01,7.585240139731117992e+00,8.436016787340864909e+00,0.000000000000000000e+00
