Time (s),Altitude (m),Velocity (m/s),Angular Velocity (rad/s),Fin Cant Angle (deg)
0.000000000000000000e+00,1.000000000000000000e+01,0.000000000000000000e+00,9.992987309897339188e+00,0.000000000000000000e+00
1.000000000000000021e-03,9.999997794124713124e+00,-9.084026838019253203e-03,9.985957233824171553e+00,0.000000000000000000e+00
2.000000000000000042e-03,9.999986825640782229e+00,-1.675261158134264475e-02,9.978909745186465230e+00,0.000000000000000000e+00
3.000000000000000062e-03,9.999968510064707772e+00,-2.300542657465789315e-02,9.971845145452901349e+00,0.000000000000000000e+00
4.000000000000000083e-03,9.999944263177734882e+00,-2.784242119570744939e-02,9.964763527197053605e+00,0.000000000000000000e+00
5.000000000000000104e-03,9.999915500811731306e+00,-3.126354482037865118e-02,9.957664900659201734e+00,0.000000000000000000e+00
6.000000000000000125e-03,9.999883638849189182e+00,-3.326874682296277613e-02,9.950549285985630377e+00,0.000000000000000000e+00
7.000000000000000146e-03,9.999850093223226821e+00,-3.385797657604591032e-02,9.943416708672380366e+00,0.000000000000000000e+00
8.000000000000000167e-03,9.999816279917590478e+00,-3.303118345015119278e-02,9.936267195027328469e+00,0.000000000000000000e+00
9.000000000000001055e-03,9.999783614966656131e+00,-3.078831681324967554e-02,9.929100767650377080e+00,0.000000000000000000e+00
1.000000000000000194e-02,9.999753514455433034e+00,-2.712932603025518599e-02,9.921917618107412906e+00,0.000000000000000000e+00
1.100000000000000283e-02,9.999727394519567270e+00,-2.205416046261583773e-02,9.914718025678553204e+00,0.000000000000000000e+00
1.200000000000000372e-02,9.999706671345343523e+00,-1.556276946811313219e-02,9.907501978344976479e+00,0.000000000000000000e+00
1.300000000000000461e-02,9.999692761169688637e+00,-7.655102400981727423e-03,9.900269441244370583e+00,0.000000000000000000e+00
1.400000000000000550e-02,9.999687080280175167e+00,1.668891387539030852e-03,9.893020353920462640e+00,0.000000000000000000e+00
1.500000000000000638e-02,9.999691045015028479e+00,1.240926254810770235e-02,9.885754625990498923e+00,0.000000000000000000e+00
1.600000000000000727e-02,9.999706071763121429e+00,2.456606173153384060e-02,9.878472132831106478e+00,0.000000000000000000e+00
1.700000000000000816e-02,9.999733576963977910e+00,3.813933958629799753e-02,9.871172792089154768e+00,0.000000000000000000e+00
1.800000000000000905e-02,9.999774977107767526e+00,5.312914675525004515e-02,9.863856742918290621e+00,0.000000000000000000e+00
1.900000000000000994e-02,9.999831688735303814e+00,6.953553387140153086e-02,9.856523791338135609e+00,0.000000000000000000e+00
2.000000000000001082e-02,9.999905128438028257e+00,8.735855155273636319e-02,9.849173640022888421e+00,0.000000000000000000e+00
2.100000000000001171e-02,9.999996712857992520e+00,1.065982503959709976e-01,9.841805937156900441e+00,0.000000000000000000e+00
2.200000000000001260e-02,1.000010785868784247e+01,1.272546809692044201e-01,9.834420272332835111e+00,0.000000000000000000e+00
2.300000000000001349e-02,1.000023998267078085e+01,1.493278938034064973e-01,9.827016172475660838e+00,0.000000000000000000e+00
2.400000000000001438e-02,1.000039450160053178e+01,1.728179393827002364e-01,9.819593224847215751e+00,0.000000000000000000e+00
2.500000000000001527e-02,1.000057283232128924e+01,1.977248681334045632e-01,9.812151217052235808e+00,0.000000000000000000e+00
2.600000000000001615e-02,1.000077639172765842e+01,2.240487304118126410e-01,9.804689495394638854e+00,0.000000000000000000e+00
2.700000000000001704e-02,1.000100659676457937e+01,2.517895764906923906e-01,9.797207311801781060e+00,0.000000000000000000e+00
2.800000000000001793e-02,1.000126486442724172e+01,2.809474565445054806e-01,9.789703837245403051e+00,0.000000000000000000e+00
2.900000000000001882e-02,1.000155261176098698e+01,3.115224206333496171e-01,9.782178157957163833e+00,0.000000000000000000e+00
3.000000000000001971e-02,1.000187125586118242e+01,3.435145186856414234e-01,9.774629433292950864e+00,0.000000000000000000e+00
3.100000000000002059e-02,1.000222221387308963e+01,3.769238004795673058e-01,9.767057035093957396e+00,0.000000000000000000e+00
3.200000000000002148e-02,1.000260690299170996e+01,4.117503156233423001e-01,9.759459820302810229e+00,0.000000000000000000e+00
3.300000000000002237e-02,1.000302674046160867e+01,4.479941135343231684e-01,9.751836526174399111e+00,0.000000000000000000e+00
3.400000000000002326e-02,1.000348314357671953e+01,4.856552434170369192e-01,9.744185789260660258e+00,0.000000000000000000e+00
3.500000000000002415e-02,1.000397752968012632e+01,5.247337542401946386e-01,9.736506336928689720e+00,0.000000000000000000e+00
3.600000000000002504e-02,1.000451131616382128e+01,5.652296947127702920e-01,9.728797143120587521e+00,0.000000000000000000e+00
3.700000000000002592e-02,1.000508592046844036e+01,6.071431132592335356e-01,9.721056606108103182e+00,0.000000000000000000e+00
3.800000000000002681e-02,1.000570276008297199e+01,6.504740579940335721e-01,9.713282965498088117e+00,0.000000000000000000e+00
3.900000000000002770e-02,1.000636325254444259e+01,6.952225766954425179e-01,9.705474508960453051e+00,0.000000000000000000e+00
4.000000000000002859e-02,1.000706881543757376e+01,7.413887167788724142e-01,9.697629852109713511e+00,0.000000000000000000e+00
4.100000000000002948e-02,1.000782086639441104e+01,7.889725252697865621e-01,9.689747106962450118e+00,0.000000000000000000e+00
4.200000000000003036e-02,1.000862082309393308e+01,8.379740487763291945e-01,9.681824090628641244e+00,0.000000000000000000e+00
4.300000000000003125e-02,1.000947010326162001e+01,8.883933334618090427e-01,9.673859013645060401e+00,0.000000000000000000e+00
4.400000000000003214e-02,1.001037012466901110e+01,9.402304250171701350e-01,9.665850025913103494e+00,0.000000000000000000e+00
4.500000000000003303e-02,1.001132228872558194e+01,9.928290318160946093e-01,9.657795284411228920e+00,0.000000000000000000e+00
4.600000000000003392e-02,1.001232707527613464e+01,1.045532834230690433e+00,9.649693529346265564e+00,0.000000000000000000e+00
4.700000000000003481e-02,1.001338458951698485e+01,1.098341835385260090e+00,9.641543885812271952e+00,0.000000000000000000e+00
4.800000000000003569e-02,1.001449493664753732e+01,1.151256038233786416e+00,9.633344764504720104e+00,0.000000000000000000e+00
4.900000000000003658e-02,1.001565822187011179e+01,1.204275445567211555e+00,9.625095242806590790e+00,0.000000000000000000e+00
5.000000000000003747e-02,1.001687455038978314e+01,1.257400060020543719e+00,9.616809917072558278e+00,0.000000000000000000e+00
5.100000000000003836e-02,1.001814402741420551e+01,1.310629883114033278e+00,9.608502735809652862e+00,0.000000000000000000e+00
5.200000000000003925e-02,1.001946675815207399e+01,1.363964915915256260e+00,9.600171985100459437e+00,0.000000000000000000e+00
5.300000000000004013e-02,1.002084284781349055e+01,1.417405160178549561e+00,9.591816396439570624e+00,0.000000000000000000e+00
5.400000000000004102e-02,1.002227240161027311e+01,1.470950617495208723e+00,9.583434668415913293e+00,0.000000000000000000e+00
5.500000000000004191e-02,1.002375552475579568e+01,1.524601289300627549e+00,9.575025026673559481e+00,0.000000000000000000e+00
5.600000000000004280e-02,1.002529232246483382e+01,1.578357176881417967e+00,9.566585863144617008e+00,0.000000000000000000e+00
5.700000000000004369e-02,1.002688289995341719e+01,1.632218281382503022e+00,9.558116020224463938e+00,0.000000000000000000e+00
5.800000000000004458e-02,1.002852736243869103e+01,1.686184603814164573e+00,9.549614343694642571e+00,0.000000000000000000e+00
5.900000000000004546e-02,1.003022581513878286e+01,1.740256145059038806e+00,9.541079111475518459e+00,0.000000000000000000e+00
6.000000000000004635e-02,1.003197836327267467e+01,1.794432905879048690e+00,9.532509052056443721e+00,0.000000000000000000e+00
6.100000000000004724e-02,1.003378511206008561e+01,1.848714886922258716e+00,9.523903259563290646e+00,0.000000000000000000e+00
6.200000000000004813e-02,1.003564616672135834e+01,1.903102088729649699e+00,9.515260231510501043e+00,0.000000000000000000e+00
6.300000000000004208e-02,1.003756163247735245e+01,1.957594511741798549e+00,9.506578720523410908e+00,0.000000000000000000e+00
6.400000000000004297e-02,1.003953161454934850e+01,2.012192156305457669e+00,9.497857979124116667e+00,0.000000000000000000e+00
6.500000000000004385e-02,1.004155621815895394e+01,2.066895022680022453e+00,9.489096646325284823e+00,0.000000000000000000e+00
6.600000000000004474e-02,1.004363554852801776e+01,2.121703111043883538e+00,9.480293663785250402e+00,0.000000000000000000e+00
6.700000000000004563e-02,1.004576971087854886e+01,2.176616421500655374e+00,9.471448460934478675e+00,0.000000000000000000e+00
6.800000000000004652e-02,1.004795881043264671e+01,2.231634954085272238e+00,9.462559647439805488e+00,0.000000000000000000e+00
6.900000000000004741e-02,1.005020295241243034e+01,2.286758708769950577e+00,9.453626645485691427e+00,0.000000000000000000e+00
7.000000000000004829e-02,1.005250224203997966e+01,2.341987685470010128e+00,9.444648860808346313e+00,0.000000000000000000e+00
7.100000000000004918e-02,1.005485678453727694e+01,2.397321884049548490e+00,9.435625215035200242e+00,0.000000000000000000e+00
7.200000000000005007e-02,1.005726668512615696e+01,2.452761304326967373e+00,9.426555462858040357e+00,0.000000000000000000e+00
7.300000000000005096e-02,1.005973204902826801e+01,2.508305946080343851e+00,9.417438581774989714e+00,0.000000000000000000e+00
7.400000000000005185e-02,1.006225298146502389e+01,2.563955809052646195e+00,9.408274443584117464e+00,0.000000000000000000e+00
7.500000000000005274e-02,1.006482958765757907e+01,2.619710892956792492e+00,9.399062293577667759e+00,0.000000000000000000e+00
7.600000000000005362e-02,1.006746197282679312e+01,2.675571197480547614e+00,9.389801936005248706e+00,0.000000000000000000e+00
7.700000000000005451e-02,1.007015024219320765e+01,2.731536722291255437e+00,9.380493132118422395e+00,0.000000000000000000e+00
7.800000000000005540e-02,1.007289450097703032e+01,2.787607467040415621e+00,9.371135462101776170e+00,0.000000000000000000e+00
7.900000000000005629e-02,1.007569485439811707e+01,2.843783431368088088e+00,9.361729115604232376e+00,0.000000000000000000e+00
8.000000000000005718e-02,1.007855140767596325e+01,2.900064614907139404e+00,9.352273699290057252e+00,0.000000000000000000e+00
8.100000000000005806e-02,1.008146426602969470e+01,2.956451017287324401e+00,9.342769573005016426e+00,0.000000000000000000e+00
8.200000000000005895e-02,1.008443353467806780e+01,3.012942638139203488e+00,9.333216593113728976e+00,0.000000000000000000e+00
8.300000000000005984e-02,1.008745931883947300e+01,3.069539477097900537e+00,9.323615111717975523e+00,0.000000000000000000e+00
8.400000000000006073e-02,1.009054172373193481e+01,3.126241533806697781e+00,9.313489414259489507e+00,0.000000000000000000e+00
8.500000000000006162e-02,1.009368085457312425e+01,3.183048807920472623e+00,9.303419472817747504e+00,0.000000000000000000e+00
8.600000000000006251e-02,1.009687681658037128e+01,3.239961299108977233e+00,9.293259953588604461e+00,0.000000000000000000e+00
8.700000000000006339e-02,1.010012971497068079e+01,3.296979007059963607e+00,9.283046911571402049e+00,0.000000000000000000e+00
8.800000000000006428e-02,1.010343965496074858e+01,3.354101931482154964e+00,9.272779532420257098e+00,0.000000000000000000e+00
8.900000000000006517e-02,1.010680674176698446e+01,3.411330072108068823e+00,9.262457019487881027e+00,0.000000000000000000e+00
9.000000000000006606e-02,1.011023108060553888e+01,3.468663428696691753e+00,9.252078593773729764e+00,0.000000000000000000e+00
9.100000000000006695e-02,1.011371277669232605e+01,3.526102001036009348e+00,9.241643493858088476e+00,0.000000000000000000e+00
9.200000000000006783e-02,1.011725193524305588e+01,3.583645788945396315e+00,9.231150975825213933e+00,0.000000000000000000e+00
9.300000000000006872e-02,1.012084866147326601e+01,3.641294792277869785e+00,9.220600313187087949e+00,0.000000000000000000e+00
9.400000000000006961e-02,1.012450306059835370e+01,3.699049010922207614e+00,9.209990796792896006e+00,0.000000000000000000e+00
9.500000000000007050e-02,1.012821523783361499e+01,3.756908444804935687e+00,9.199321734717301524e+00,0.000000000000000000e+00
9.600000000000007139e-02,1.013198529839428019e+01,3.814873093892189093e+00,9.188592555043728183e+00,0.000000000000000000e+00
9.700000000000007228e-02,1.013581334747687102e+01,3.872942928530596074e+00,9.177802645367943768e+00,0.000000000000000000e+00
9.800000000000007316e-02,1.013969949028776618e+01,3.931117941469334465e+00,9.166951589508023801e+00,0.000000000000000000e+00
9.900000000000007405e-02,1.014364383200285147e+01,3.989398161601292792e+00,9.156038793061995307e+00,0.000000000000000000e+00
1.000000000000000749e-01,1.014764647782932450e+01,4.047783595718444261e+00,9.145065852380977134e+00,0.000000000000000000e+00
1.010000000000000758e-01,1.015170753298113482e+01,4.106274241587885676e+00,9.134034311874117407e+00,0.000000000000000000e+00
1.020000000000000767e-01,1.015582710266905586e+01,4.164870096962268953e+00,9.122943492751325323e+00,0.000000000000000000e+00
1.030000000000000776e-01,1.016000529210262115e+01,4.223571161964366105e+00,9.111792733355180474e+00,0.000000000000000000e+00
1.040000000000000785e-01,1.016424220649150278e+01,4.282377436783581182e+00,9.100581389035426128e+00,0.000000000000000000e+00
1.050000000000000794e-01,1.016853795104557534e+01,4.341288921677258550e+00,9.089308832051305131e+00,0.000000000000000000e+00
1.060000000000000803e-01,1.017289263097498697e+01,4.400305616971882827e+00,9.077974451423951763e+00,0.000000000000000000e+00
1.070000000000000812e-01,1.017730635149023044e+01,4.459427523064150911e+00,9.066577652824236111e+00,0.000000000000000000e+00
1.080000000000000820e-01,1.018177921780220885e+01,4.518654640421939206e+00,9.055117858432945255e+00,0.000000000000000000e+00
1.090000000000000829e-01,1.018631133512231024e+01,4.577986969585169597e+00,9.043594506811851730e+00,0.000000000000000000e+00
1.100000000000000838e-01,1.019090280866248044e+01,4.637424511166578611e+00,9.032007052726550356e+00,0.000000000000000000e+00
1.110000000000000847e-01,1.019555374363529232e+01,4.696967265852387996e+00,9.020354967051009254e+00,0.000000000000000000e+00
1.120000000000000856e-01,1.020026424525402398e+01,4.756615234402882919e+00,9.008637736578126720e+00,0.000000000000000000e+00
1.130000000000000865e-01,1.020503441873272976e+01,4.816368417652901357e+00,8.996854863890284548e+00,0.000000000000000000e+00
1.140000000000000874e-01,1.020986436928631669e+01,4.876226816512240880e+00,8.985005867182907835e+00,0.000000000000000000e+00
1.150000000000000883e-01,1.021475420213061724e+01,4.936190431965983727e+00,8.973090280130200824e+00,0.000000000000000000e+00
1.160000000000000892e-01,1.021970402248246579e+01,4.996259265074738387e+00,8.961107651722363343e+00,0.000000000000000000e+00
1.170000000000000900e-01,1.022471393555977670e+01,5.056433316974818126e+00,8.949057546081968795e+00,0.000000000000000000e+00
1.180000000000000909e-01,1.022978404658161722e+01,5.116712588878344015e+00,8.936939542344324749e+00,0.000000000000000000e+00
1.190000000000000918e-01,1.023491446076828204e+01,5.177097082073284007e+00,8.924753234469021024e+00,0.000000000000000000e+00
1.200000000000000927e-01,1.024010528334137327e+01,5.237586797923431625e+00,8.912498231061679377e+00,0.000000000000000000e+00
1.210000000000000936e-01,1.024535661952387144e+01,5.298181737868318919e+00,8.900174155251885821e+00,0.000000000000000000e+00
1.220000000000000945e-01,1.025066857454021729e+01,5.358881903423082349e+00,8.887780644498599614e+00,0.000000000000000000e+00
1.230000000000000954e-01,1.025604125361638097e+01,5.419687296178261171e+00,8.875317350438084674e+00,0.000000000000000000e+00
1.240000000000000963e-01,1.026147476197994024e+01,5.480597917799562069e+00,8.862783938719157817e+00,0.000000000000000000e+00
1.250000000000000833e-01,1.026696920486015685e+01,5.541613770027570496e+00,8.850180088817161561e+00,0.000000000000000000e+00
1.260000000000000842e-01,1.027252468748805114e+01,5.602734854677422049e+00,8.837505493917660715e+00,0.000000000000000000e+00
1.270000000000000850e-01,1.027814131509647311e+01,5.663961173638425883e+00,8.824759860728054406e+00,0.000000000000000000e+00
1.280000000000000859e-01,1.028381919292017876e+01,5.725292728873649928e+00,8.811942909303635219e+00,0.000000000000000000e+00
1.290000000000000868e-01,1.028955842619590477e+01,5.786729522419472360e+00,8.799054372914607569e+00,0.000000000000000000e+00
1.300000000000000877e-01,1.029535912016243948e+01,5.848271556385107317e+00,8.786093997868581695e+00,0.000000000000000000e+00
1.310000000000000886e-01,1.030122138006069932e+01,5.909918832952099521e+00,8.773061543351506231e+00,0.000000000000000000e+00
1.320000000000000895e-01,1.030714531113379628e+01,5.971671354373784268e+00,8.759956781274381044e+00,0.000000000000000000e+00
1.330000000000000904e-01,1.031313101862711434e+01,6.033529122974714554e+00,8.746779496137584431e+00,0.000000000000000000e+00
1.340000000000000913e-01,1.031917860778837515e+01,6.095492141150081977e+00,8.733529484918449270e+00,0.000000000000000000e+00
1.350000000000000921e-01,1.032528818259852166e+01,6.157509639330238649e+00,8.720206673961543586e+00,0.000000000000000000e+00
1.360000000000000930e-01,1.033145977574819163e+01,6.219530843624595740e+00,8.706811051799483892e+00,0.000000000000000000e+00
1.370000000000000939e-01,1.033769339094258655e+01,6.281555750006996952e+00,8.693342619342644184e+00,0.000000000000000000e+00
1.380000000000000948e-01,1.034398903188290042e+01,6.343584354541308201e+00,8.679801389647384013e+00,0.000000000000000000e+00
1.390000000000000957e-01,1.035034670226641218e+01,6.405616653380119985e+00,8.666187387725022617e+00,0.000000000000000000e+00
1.400000000000000966e-01,1.035676640578657270e+01,6.467652642763446202e+00,8.652500650209203670e+00,0.000000000000000000e+00
1.410000000000000975e-01,1.036324814613309364e+01,6.529692319017446955e+00,8.638741225239254362e+00,0.000000000000000000e+00
1.420000000000000984e-01,1.036979192699202912e+01,6.591735678553153122e+00,8.624909172165985183e+00,0.000000000000000000e+00
1.430000000000000993e-01,1.037639775204586634e+01,6.653782717865202478e+00,8.611004561379401068e+00,0.000000000000000000e+00
1.440000000000001001e-01,1.038306562497360552e+01,6.715833433530585594e+00,8.597027474064635300e+00,0.000000000000000000e+00
1.450000000000001010e-01,1.038979554945083983e+01,6.777887822207419255e+00,8.582978002009891583e+00,0.000000000000000000e+00
1.460000000000001019e-01,1.039658752914984063e+01,6.839945880633702124e+00,8.568856247392401926e+00,0.000000000000000000e+00
1.470000000000001028e-01,1.040344156773963569e+01,6.902007605626110376e+00,8.554662322602663238e+00,0.000000000000000000e+00
1.480000000000001037e-01,1.041035766888608549e+01,6.964072994078807533e+00,8.540396349995466707e+00,0.000000000000000000e+00
1.490000000000001046e-01,1.041733583625196147e+01,7.026142042962256973e+00,8.526058461786380605e+00,0.000000000000000000e+00
1.500000000000001055e-01,1.042437607349702411e+01,7.088214749322053976e+00,8.511640810191826390e+00,0.000000000000000000e+00
1.510000000000001064e-01,1.043147838427804786e+01,7.150291108853930488e+00,8.497135781681947719e+00,0.000000000000000000e+00
1.520000000000001072e-01,1.043864277224664150e+01,7.212371115539683686e+00,8.482543839924362672e+00,0.000000000000000000e+00
1.530000000000001081e-01,1.044586924104877390e+01,7.274454764151625064e+00,8.467865452858827524e+00,0.000000000000000000e+00
1.540000000000001090e-01,1.045315779432518610e+01,7.336542049472630111e+00,8.453101092748786627e+00,0.000000000000000000e+00
1.550000000000001099e-01,1.046050843571140732e+01,7.398632966296053048e+00,8.438251235980688492e+00,0.000000000000000000e+00
1.560000000000001108e-01,1.046792116883775847e+01,7.460727509425634452e+00,8.423316363062689049e+00,0.000000000000000000e+00
1.570000000000001117e-01,1.047539599732936999e+01,7.522825673675431979e+00,8.408296958539597910e+00,0.000000000000000000e+00
1.580000000000001126e-01,1.048293292480618710e+01,7.584927453869759972e+00,8.393193510909263466e+00,0.000000000000000000e+00
