Time (s),Altitude (m),Velocity (m/s),Angular Velocity (rad/s),Fin Cant Angle (deg)
0.000000000000000000e+00,1.000000000000000000e+01,0.000000000000000000e+00,0.000000000000000000e+00,0.000000000000000000e+00
1.000000000000000021e-03,9.999997794124711348e+00,-9.084026840626978003e-03,0.000000000000000000e+00,0.000000000000000000e+00
2.000000000000000042e-03,9.999986825640775123e+00,-1.675261158653250718e-02,0.000000000000000000e+00,0.000000000000000000e+00
3.000000000000000062e-03,9.999968510064697114e+00,-2.300542655913372092e-02,0.000000000000000000e+00,0.000000000000000000e+00
4.000000000000000083e-03,9.999944263177754422e+00,-2.784242110429496764e-02,0.000000000000000000e+00,0.000000000000000000e+00
5.000000000000000104e-03,9.999915500811875191e+00,-3.126354456363308193e-02,0.000000000000000000e+00,0.000000000000000000e+00
6.000000000000000125e-03,9.999883638849647483e+00,-3.326874627922855876e-02,0.000000000000000000e+00,0.000000000000000000e+00
7.000000000000000146e-03,9.999850093224315728e+00,-3.385797559542230717e-02,0.000000000000000000e+00,0.000000000000000000e+00
8.000000000000000167e-03,9.999816279919777173e+00,-3.303118185578557409e-02,0.000000000000000000e+00,0.000000000000000000e+00
9.000000000000001055e-03,9.999783614970587209e+00,-3.078831438829051498e-02,0.000000000000000000e+00,0.000000000000000000e+00
1.000000000000000194e-02,9.999753514461977133e+00,-2.712932250654375571e-02,0.000000000000000000e+00,0.000000000000000000e+00
1.100000000000000283e-02,9.999727394529841717e+00,-2.205415563587143427e-02,0.000000000000000000e+00,0.000000000000000000e+00
1.200000000000000372e-02,9.999706671360703680e+00,-1.556276366932086638e-02,0.000000000000000000e+00,0.000000000000000000e+00
1.300000000000000461e-02,9.999692761190916102e+00,-7.655096210772441290e-03,0.000000000000000000e+00,0.000000000000000000e+00
1.400000000000000550e-02,9.999687080307648301e+00,1.668897886066642716e-03,0.000000000000000000e+00,0.000000000000000000e+00
1.500000000000000638e-02,9.999691045049070581e+00,1.240926939305224061e-02,0.000000000000000000e+00,0.000000000000000000e+00
1.600000000000000727e-02,9.999706071804082441e+00,2.456606893388318252e-02,0.000000000000000000e+00,0.000000000000000000e+00
1.700000000000000816e-02,9.999733577012191788e+00,3.813934705460971658e-02,0.000000000000000000e+00,0.000000000000000000e+00
1.800000000000000905e-02,9.999774977163434997e+00,5.312915423223493749e-02,0.000000000000000000e+00,0.000000000000000000e+00
1.900000000000000994e-02,9.999831688798309415e+00,6.953554086816471358e-02,0.000000000000000000e+00,0.000000000000000000e+00
2.000000000000001082e-02,9.999905128507693419e+00,8.735855727772252888e-02,0.000000000000000000e+00,0.000000000000000000e+00
2.100000000000001171e-02,9.999996712932757603e+00,1.065982536780954171e-01,0.000000000000000000e+00,0.000000000000000000e+00
2.200000000000001260e-02,1.000010785876486175e+01,1.272546801754870782e-01,0.000000000000000000e+00,0.000000000000000000e+00
2.300000000000001349e-02,1.000023998274544645e+01,1.493278867517786046e-01,0.000000000000000000e+00,0.000000000000000000e+00
2.400000000000001438e-02,1.000039450166589994e+01,1.728179232508445240e-01,0.000000000000000000e+00,0.000000000000000000e+00
2.500000000000001527e-02,1.000057283236742123e+01,1.977248393646151847e-01,0.000000000000000000e+00,0.000000000000000000e+00
2.600000000000001615e-02,1.000077639174085853e+01,2.240486846189506387e-01,0.000000000000000000e+00,0.000000000000000000e+00
2.700000000000001704e-02,1.000100659672654757e+01,2.517895083593790218e-01,0.000000000000000000e+00,0.000000000000000000e+00
2.800000000000001793e-02,1.000126486431412509e+01,2.809473597367441178e-01,0.000000000000000000e+00,0.000000000000000000e+00
2.900000000000001882e-02,1.000155261154232811e+01,3.115222876928019913e-01,0.000000000000000000e+00,0.000000000000000000e+00
3.000000000000001971e-02,1.000187125549878608e+01,3.435143409458020214e-01,0.000000000000000000e+00,0.000000000000000000e+00
3.100000000000002059e-02,1.000222221331979178e+01,3.769235679760845059e-01,0.000000000000000000e+00,0.000000000000000000e+00
3.200000000000002148e-02,1.000260690219005788e+01,4.117500170117237013e-01,0.000000000000000000e+00,0.000000000000000000e+00
3.300000000000002237e-02,1.000302673934246656e+01,4.479937360142427494e-01,0.000000000000000000e+00,0.000000000000000000e+00
3.400000000000002326e-02,1.000348314205779587e+01,4.856547726644238616e-01,0.000000000000000000e+00,0.000000000000000000e+00
3.500000000000002415e-02,1.000397752766443737e+01,5.247331743482350763e-01,0.000000000000000000e+00,0.000000000000000000e+00
3.600000000000002504e-02,1.000451131353809942e+01,5.652289881428927965e-01,0.000000000000000000e+00,0.000000000000000000e+00
3.700000000000002592e-02,1.000508591710149098e+01,6.071422608030765389e-01,0.000000000000000000e+00,0.000000000000000000e+00
3.800000000000002681e-02,1.000570275582400193e+01,6.504730387473113273e-01,0.000000000000000000e+00,0.000000000000000000e+00
3.900000000000002770e-02,1.000636324722135839e+01,6.952213680445304966e-01,0.000000000000000000e+00,0.000000000000000000e+00
4.000000000000002859e-02,1.000706880885527283e+01,7.413872944008305099e-01,0.000000000000000000e+00,0.000000000000000000e+00
4.100000000000002948e-02,1.000782085833307811e+01,7.889708631464266153e-01,0.000000000000000000e+00,0.000000000000000000e+00
4.200000000000003036e-02,1.000862081330734910e+01,8.379721192228194449e-01,0.000000000000000000e+00,0.000000000000000000e+00
4.300000000000003125e-02,1.000947009147551192e+01,8.883911071701768858e-01,0.000000000000000000e+00,0.000000000000000000e+00
4.400000000000003214e-02,1.001037011057943538e+01,9.402278711149393287e-01,0.000000000000000000e+00,0.000000000000000000e+00
4.500000000000003303e-02,1.001132227199734004e+01,9.928261179610662346e-01,0.000000000000000000e+00,0.000000000000000000e+00
4.600000000000003392e-02,1.001232705554164859e+01,1.045529527551796178e+00,0.000000000000000000e+00,0.000000000000000000e+00
4.700000000000003481e-02,1.001338456637580876e+01,1.098338102980123576e+00,0.000000000000000000e+00,0.000000000000000000e+00
4.800000000000003569e-02,1.001449490966635736e+01,1.151251847337208201e+00,0.000000000000000000e+00,0.000000000000000000e+00
4.900000000000003658e-02,1.001565819058292739e+01,1.204270763711227099e+00,0.000000000000000000e+00,0.000000000000000000e+00
5.000000000000003747e-02,1.001687451429823383e+01,1.257394855186221294e+00,0.000000000000000000e+00,0.000000000000000000e+00
5.100000000000003836e-02,1.001814398598788713e+01,1.310624117998286264e+00,0.000000000000000000e+00,0.000000000000000000e+00
5.200000000000003925e-02,1.001946671082075113e+01,1.363958547172333446e+00,0.000000000000000000e+00,0.000000000000000000e+00
5.300000000000004013e-02,1.002084279396352073e+01,1.417398144176342578e+00,0.000000000000000000e+00,0.000000000000000000e+00
5.400000000000004102e-02,1.002227234058436167e+01,1.470942910482238686e+00,0.000000000000000000e+00,0.000000000000000000e+00
5.500000000000004191e-02,1.002375545585291050e+01,1.524592847568071230e+00,0.000000000000000000e+00,0.000000000000000000e+00
5.600000000000004280e-02,1.002529224494028703e+01,1.578347956919682105e+00,0.000000000000000000e+00,0.000000000000000000e+00
5.700000000000004369e-02,1.002688281301909612e+01,1.632208240031938873e+00,0.000000000000000000e+00,0.000000000000000000e+00
5.800000000000004458e-02,1.002852726526344185e+01,1.686173698409601629e+00,0.000000000000000000e+00,0.000000000000000000e+00
5.900000000000004546e-02,1.003022570684893466e+01,1.740244333567878776e+00,0.000000000000000000e+00,0.000000000000000000e+00
6.000000000000004635e-02,1.003197824295270379e+01,1.794420147032722790e+00,0.000000000000000000e+00,0.000000000000000000e+00
6.100000000000004724e-02,1.003378497875340436e+01,1.848701140340908822e+00,0.000000000000000000e+00,0.000000000000000000e+00
6.200000000000004813e-02,1.003564601943123513e+01,1.903087315039931671e+00,0.000000000000000000e+00,0.000000000000000000e+00
6.300000000000004208e-02,1.003756147016794031e+01,1.957578672687752652e+00,0.000000000000000000e+00,0.000000000000000000e+00
6.400000000000004297e-02,1.003953143614682908e+01,2.012175214852423899e+00,0.000000000000000000e+00,0.000000000000000000e+00
6.500000000000004385e-02,1.004155602255277557e+01,2.066876943111612963e+00,0.000000000000000000e+00,0.000000000000000000e+00
6.600000000000004474e-02,1.004363533457223845e+01,2.121683859052046817e+00,0.000000000000000000e+00,0.000000000000000000e+00
6.700000000000004563e-02,1.004576947739326265e+01,2.176595964268891237e+00,0.000000000000000000e+00,0.000000000000000000e+00
6.800000000000004652e-02,1.004795855620548828e+01,2.231613260365081342e+00,0.000000000000000000e+00,0.000000000000000000e+00
6.900000000000004741e-02,1.005020267620016483e+01,2.286735748950615488e+00,0.000000000000000000e+00,0.000000000000000000e+00
7.000000000000004829e-02,1.005250194257014940e+01,2.341963431647076987e+00,0.000000000000000000e+00,0.000000000000000000e+00
7.100000000000004918e-02,1.005485646050989246e+01,2.397296309964668470e+00,0.000000000000000000e+00,0.000000000000000000e+00
7.200000000000005007e-02,1.005726633521539704e+01,2.452734385529859118e+00,0.000000000000000000e+00,0.000000000000000000e+00
7.300000000000005096e-02,1.005973167188427908e+01,2.508277659981062335e+00,0.000000000000000000e+00,0.000000000000000000e+00
7.400000000000005185e-02,1.006225257571579768e+01,2.563926134947138724e+00,-1.821606210064501383e-16,0.000000000000000000e+00
7.500000000000005274e-02,1.006482915191083727e+01,2.619679812032087884e+00,-3.622558332306907503e-17,0.000000000000000000e+00
7.600000000000005362e-02,1.006746150567188813e+01,2.675538692883194791e+00,6.065093416008798716e-17,0.000000000000000000e+00
7.700000000000005451e-02,1.007014974220308900e+01,2.731502779134352021e+00,-1.436762532514614080e-15,0.000000000000000000e+00
7.800000000000005540e-02,1.007289396671026793e+01,2.787572072527825018e+00,-1.544574051317251014e-15,0.000000000000000000e+00
7.900000000000005629e-02,1.007569428440089254e+01,2.843746574602455279e+00,3.908292198222168089e-16,0.000000000000000000e+00
8.000000000000005718e-02,1.007855080048397056e+01,2.900026286788841556e+00,-3.672509337944306098e-15,0.000000000000000000e+00
8.100000000000005806e-02,1.008146362016997877e+01,2.956411210711128668e+00,3.743019197390134923e-16,0.000000000000000000e+00
8.200000000000005895e-02,1.008443284867101930e+01,3.012901347954648923e+00,-2.149051072391942196e-14,0.000000000000000000e+00
8.300000000000005984e-02,1.008745859120075039e+01,3.069496700059704430e+00,-6.404151478135208819e-16,0.000000000000000000e+00
8.400000000000006073e-02,1.009054095297443254e+01,3.126197268526447193e+00,-3.515647202397168071e-14,0.000000000000000000e+00
8.500000000000006162e-02,1.009368003920878110e+01,3.183003055074674403e+00,4.996148724794901660e-16,0.000000000000000000e+00
8.600000000000006251e-02,1.009687595512223623e+01,3.239914061284592695e+00,-8.151941006310123139e-15,0.000000000000000000e+00
8.700000000000006339e-02,1.010012880593481910e+01,3.296930288729502667e+00,2.991561141257386374e-14,0.000000000000000000e+00
8.800000000000006428e-02,1.010343869686812113e+01,3.354051738975203367e+00,1.333015318633914039e-13,0.000000000000000000e+00
8.900000000000006517e-02,1.010680573314529873e+01,3.411278413579412749e+00,1.199612167984606320e-13,0.000000000000000000e+00
9.000000000000006606e-02,1.011023001999109461e+01,3.468610314155068597e+00,4.293609180821877690e-14,0.000000000000000000e+00
9.100000000000006695e-02,1.011371166263180221e+01,3.526047442182519642e+00,8.507877936522051195e-14,0.000000000000000000e+00
9.200000000000006783e-02,1.011725076629522313e+01,3.583589799192093750e+00,1.487356978214131344e-13,0.000000000000000000e+00
9.300000000000006872e-02,1.012084743621068483e+01,3.641237386703903400e+00,4.039931883811462215e-14,0.000000000000000000e+00
9.400000000000006961e-02,1.012450177760903536e+01,3.698990206227354083e+00,3.716802990369364775e-14,0.000000000000000000e+00
9.500000000000007050e-02,1.012821389572259179e+01,3.756848259192916650e+00,-2.810108369392541011e-13,0.000000000000000000e+00
9.600000000000007139e-02,1.013198389578513492e+01,3.814811547081804477e+00,-4.750131538262241032e-13,0.000000000000000000e+00
9.700000000000007228e-02,1.013581188303195546e+01,3.872880071433788984e+00,-4.562137330647795006e-13,0.000000000000000000e+00
9.800000000000007316e-02,1.013969796269984869e+01,3.931053833710599132e+00,-1.806118856244084556e-13,0.000000000000000000e+00
9.900000000000007405e-02,1.014364224002692083e+01,3.989332835175800174e+00,-3.028920508363126752e-13,0.000000000000000000e+00
1.000000000000000749e-01,1.014764482025283066e+01,4.047717077440474043e+00,-1.273129618123198419e-13,0.000000000000000000e+00
1.010000000000000758e-01,1.015170580861839511e+01,4.106206549583768961e+00,1.049662890443269515e-14,0.000000000000000000e+00
1.020000000000000767e-01,1.015582531034855762e+01,4.164801240850307451e+00,2.539523652475313905e-13,0.000000000000000000e+00
1.030000000000000776e-01,1.016000343066282419e+01,4.223501152921961932e+00,1.854441025970829844e-15,0.000000000000000000e+00
1.040000000000000785e-01,1.016424027478239545e+01,4.282306287530133204e+00,6.155784923103006531e-14,0.000000000000000000e+00
1.050000000000000794e-01,1.016853594793021287e+01,4.341216646454998163e+00,3.043848904433177933e-13,0.000000000000000000e+00
1.060000000000000803e-01,1.017289055533101028e+01,4.400232231524734416e+00,4.477502316914230535e-13,0.000000000000000000e+00
1.070000000000000812e-01,1.017730420221135823e+01,4.459353044614720041e+00,5.099491581664119631e-13,0.000000000000000000e+00
1.080000000000000820e-01,1.018177699379971557e+01,4.518579087646719117e+00,1.823167722575958014e-13,0.000000000000000000e+00
1.090000000000000829e-01,1.018630903532647203e+01,4.577910362588052173e+00,9.352132396497497797e-13,0.000000000000000000e+00
1.100000000000000838e-01,1.019090043202399443e+01,4.637346871450754193e+00,4.388811796406985293e-13,0.000000000000000000e+00
1.110000000000000847e-01,1.019555128912667108e+01,4.696888616290723739e+00,-2.010965649940312917e-13,0.000000000000000000e+00
1.120000000000000856e-01,1.020026171187095798e+01,4.756535599206865861e+00,-4.978518942675788109e-13,0.000000000000000000e+00
1.130000000000000865e-01,1.020503180549541966e+01,4.816287822340234115e+00,-1.007018328899543803e-12,0.000000000000000000e+00
1.140000000000000874e-01,1.020986167524076826e+01,4.876145287873163703e+00,-1.177276190681010518e-12,0.000000000000000000e+00
1.150000000000000883e-01,1.021475142634990974e+01,4.936107998028404609e+00,-7.324676976900867224e-13,0.000000000000000000e+00
1.160000000000000892e-01,1.021970116406798113e+01,4.996175955068258290e+00,-6.204613934531349155e-13,0.000000000000000000e+00
1.170000000000000900e-01,1.022471099364239144e+01,5.056349161293714367e+00,-9.063933928964956956e-13,0.000000000000000000e+00
1.180000000000000909e-01,1.022978102032285541e+01,5.116627619043595310e+00,-2.721774837554086211e-13,0.000000000000000000e+00
1.190000000000000918e-01,1.023491134936143965e+01,5.177011330693695790e+00,-7.915205480275326553e-13,0.000000000000000000e+00
1.200000000000000927e-01,1.024010208601259286e+01,5.237500298655941577e+00,-1.481046747542747886e-12,0.000000000000000000e+00
1.210000000000000936e-01,1.024535333553318317e+01,5.298094525377543107e+00,-1.280672429421556257e-12,0.000000000000000000e+00
1.220000000000000945e-01,1.025066520318253538e+01,5.358794013340173024e+00,-8.084569190069096652e-13,0.000000000000000000e+00
1.230000000000000954e-01,1.025603779422246120e+01,5.419598765029962628e+00,4.839454495933778943e-13,0.000000000000000000e+00
1.240000000000000963e-01,1.026147121391726813e+01,5.480508783023732455e+00,-1.243174268857948164e-12,0.000000000000000000e+00
1.250000000000000833e-01,1.026696556753384471e+01,5.541524069901647920e+00,-5.012464170061703487e-13,0.000000000000000000e+00
1.260000000000000842e-01,1.027252096034167117e+01,5.602644628275102789e+00,1.084487064056778830e-12,0.000000000000000000e+00
1.270000000000000850e-01,1.027813749761284079e+01,5.663870460785942917e+00,7.072902811321161292e-13,0.000000000000000000e+00
1.280000000000000859e-01,1.028381528462210071e+01,5.725201570105705073e+00,-1.064125633307395823e-12,0.000000000000000000e+00
1.290000000000000868e-01,1.028955442664687148e+01,5.786637958934864656e+00,-4.094920250698895549e-13,0.000000000000000000e+00
1.300000000000000877e-01,1.029535502896728438e+01,5.848179630002094953e+00,-5.043531115223563711e-13,0.000000000000000000e+00
1.310000000000000886e-01,1.030121719686620274e+01,5.909826586063538834e+00,1.280209778823781449e-12,0.000000000000000000e+00
1.320000000000000895e-01,1.030714103562925388e+01,5.971578829902098207e+00,-1.057144162444391548e-12,0.000000000000000000e+00
1.330000000000000904e-01,1.031312665054485223e+01,6.033436364326736800e+00,-2.883652153016665661e-12,0.000000000000000000e+00
1.340000000000000913e-01,1.031917414690422774e+01,6.095399192171802483e+00,-2.948577897285440357e-12,0.000000000000000000e+00
1.350000000000000921e-01,1.032528362873226335e+01,6.157416544253544011e+00,-1.074861207626556792e-12,0.000000000000000000e+00
1.360000000000000930e-01,1.033145512876389027e+01,6.219437646983070778e+00,-2.080682806315603117e-12,0.000000000000000000e+00
1.370000000000000939e-01,1.033768865074890009e+01,6.281462496579877097e+00,-3.813310869308173573e-12,0.000000000000000000e+00
1.380000000000000948e-01,1.034398419843331318e+01,6.343491089305694608e+00,-2.421057353316562360e-12,0.000000000000000000e+00
1.390000000000000957e-01,1.035034177555941781e+01,6.405523421463562350e+00,-2.687606881064173262e-12,0.000000000000000000e+00
1.400000000000000966e-01,1.035676138586581807e+01,6.467559489396916383e+00,-1.986499555383887790e-12,0.000000000000000000e+00
1.410000000000000975e-01,1.036324303308746941e+01,6.529599289488707825e+00,-2.183077788275344458e-12,0.000000000000000000e+00
1.420000000000000984e-01,1.036978672095571774e+01,6.591642818160558193e+00,-1.416801514082434323e-13,0.000000000000000000e+00
1.430000000000000993e-01,1.037639245319834025e+01,6.653690071871934286e+00,-4.808763479924815451e-12,0.000000000000000000e+00
1.440000000000001001e-01,1.038306023353958096e+01,6.715741047119352380e+00,-4.085882317179299814e-12,0.000000000000000000e+00
1.450000000000001010e-01,1.038979006570018981e+01,6.777795740435597516e+00,7.656317893726780005e-13,0.000000000000000000e+00
1.460000000000001019e-01,1.039658195339745816e+01,6.839854148388980981e+00,-1.719889951522186635e-12,0.000000000000000000e+00
1.470000000000001028e-01,1.040343590034525079e+01,6.901916267582627107e+00,-7.134356607408164904e-12,0.000000000000000000e+00
1.480000000000001037e-01,1.041035191025404671e+01,6.963982094689367131e+00,-5.037493758281193009e-12,0.000000000000000000e+00
1.490000000000001046e-01,1.041732998683100320e+01,7.026051626344161249e+00,-3.447888243528970473e-12,0.000000000000000000e+00
1.500000000000001055e-01,1.042437013377992017e+01,7.088124859250436671e+00,-1.260167707288194023e-12,0.000000000000000000e+00
1.510000000000001064e-01,1.043147235480085655e+01,7.150201773914889536e+00,2.040572053309399815e-13,0.000000000000000000e+00
1.520000000000001072e-01,1.043863665356747283e+01,7.212282348959906386e+00,-2.326467906615592510e-12,0.000000000000000000e+00
1.530000000000001081e-01,1.044586303373884917e+01,7.274366578662363025e+00,-1.264226366782844425e-12,0.000000000000000000e+00
1.540000000000001090e-01,1.045315149896834583e+01,7.336454457303616117e+00,6.362141692389227468e-12,0.000000000000000000e+00
1.550000000000001099e-01,1.046050205290360324e+01,7.398545979169542264e+00,7.615160278377715083e-12,0.000000000000000000e+00
1.560000000000001108e-01,1.046791469918654904e+01,7.460641138550575313e+00,7.730099860508455512e-12,0.000000000000000000e+00
1.570000000000001117e-01,1.047538944145340345e+01,7.522739929741755205e+00,1.376883386254138954e-11,0.000000000000000000e+00
