Time (s),Altitude (m),Velocity (m/s),Angular Velocity (rad/s),Fin Cant Angle (deg)
0.000000000000000000e+00,1.000000000000000000e+01,0.000000000000000000e+00,9.993546029174552814e+00,0.000000000000000000e+00
1.000000000000000021e-03,9.999997794124711348e+00,-9.084026838219320596e-03,9.987143277659978224e+00,0.000000000000000000e+00
2.000000000000000042e-03,9.999986825640780452e+00,-1.675261158227776825e-02,9.980791542239483505e+00,0.000000000000000000e+00
3.000000000000000062e-03,9.999968510064704219e+00,-2.300542657558591816e-02,9.974490595354424727e+00,0.000000000000000000e+00
4.000000000000000083e-03,9.999944263177729553e+00,-2.784242119433369411e-02,9.968240237841369478e+00,0.000000000000000000e+00
5.000000000000000104e-03,9.999915500811727753e+00,-3.126354481265430918e-02,9.962040476267613798e+00,0.000000000000000000e+00
6.000000000000000125e-03,9.999883638849194512e+00,-3.326874680293765568e-02,9.955891544302883034e+00,0.000000000000000000e+00
7.000000000000000146e-03,9.999850093223255243e+00,-3.385797653574607741e-02,9.949793276738864378e+00,0.000000000000000000e+00
8.000000000000000167e-03,9.999816279917665085e+00,-3.303118337944929706e-02,9.943745496587229837e+00,0.000000000000000000e+00
9.000000000000001055e-03,9.999783614966808898e+00,-3.078831669969762583e-02,9.937748045122654972e+00,0.000000000000000000e+00
1.000000000000000194e-02,9.999753514455711922e+00,-2.712932585885500375e-02,9.931801062555875248e+00,0.000000000000000000e+00
1.100000000000000283e-02,9.999727394520032675e+00,-2.205416021552070865e-02,9.925904611748935125e+00,0.000000000000000000e+00
1.200000000000000372e-02,9.999706671346075382e+00,-1.556276912427272813e-02,9.920058464686295707e+00,0.000000000000000000e+00
1.300000000000000461e-02,9.999692761170788202e+00,-7.655101935772540278e-03,9.914262368938361547e+00,0.000000000000000000e+00
1.400000000000000550e-02,9.999687080281770335e+00,1.668892002619026468e-03,9.908516110679261857e+00,0.000000000000000000e+00
1.500000000000000638e-02,9.999691045017275570e+00,1.240926334555783953e-02,9.902819806976490113e+00,0.000000000000000000e+00
1.600000000000000727e-02,9.999706071766210513e+00,2.456606274760975497e-02,9.897173195408679902e+00,0.000000000000000000e+00
1.700000000000000816e-02,9.999733576968136362e+00,3.813934086018590242e-02,9.891575865180907812e+00,0.000000000000000000e+00
1.800000000000000905e-02,9.999774977113263574e+00,5.312914832737511417e-02,9.886027357984783492e+00,0.000000000000000000e+00
1.900000000000000994e-02,9.999831688742442992e+00,6.953553578052673600e-02,9.880527322281425384e+00,0.000000000000000000e+00
2.000000000000001082e-02,9.999905128447153402e+00,8.735855383144333630e-02,9.875075562660365236e+00,0.000000000000000000e+00
2.100000000000001171e-02,9.999996712869478444e+00,1.065982530640484510e-01,9.869671432238021680e+00,0.000000000000000000e+00
2.200000000000001260e-02,1.000010785870207641e+01,1.272546840244035415e-01,9.864314196250585809e+00,0.000000000000000000e+00
2.300000000000001349e-02,1.000023998268814118e+01,1.493278972089560619e-01,9.859003059043724093e+00,0.000000000000000000e+00
2.400000000000001438e-02,1.000039450162134891e+01,1.728179430509143855e-01,9.853737334088950917e+00,0.000000000000000000e+00
2.500000000000001527e-02,1.000057283234578698e+01,1.977248719046593162e-01,9.848516309688164938e+00,0.000000000000000000e+00
2.600000000000001615e-02,1.000077639175587940e+01,2.240487340281176187e-01,9.843338886108133678e+00,0.000000000000000000e+00
2.700000000000001704e-02,1.000100659679627668e+01,2.517895795630432088e-01,9.838203856093814537e+00,0.000000000000000000e+00
2.800000000000001793e-02,1.000126486446174390e+01,2.809474585131733204e-01,9.833109921923774976e+00,0.000000000000000000e+00
2.900000000000001882e-02,1.000155261179700794e+01,3.115224207202511586e-01,9.828055720836516684e+00,0.000000000000000000e+00
3.000000000000001971e-02,1.000187125589659765e+01,3.435145158379344643e-01,9.823040027547296660e+00,0.000000000000000000e+00
3.100000000000002059e-02,1.000222221390464306e+01,3.769237933036391208e-01,9.818061157607797185e+00,0.000000000000000000e+00
3.200000000000002148e-02,1.000260690301465694e+01,4.117503023083989300e-01,9.813117277098307056e+00,0.000000000000000000e+00
3.300000000000002237e-02,1.000302674046927720e+01,4.479940917648580490e-01,9.808206413228193199e+00,0.000000000000000000e+00
3.400000000000002326e-02,1.000348314355998447e+01,4.856552102735476328e-01,9.803326471997966252e+00,0.000000000000000000e+00
3.500000000000002415e-02,1.000397752962677700e+01,5.247337060876382520e-01,9.798475193707950837e+00,0.000000000000000000e+00
3.600000000000002504e-02,1.000451131605782074e+01,5.652296270763965680e-01,9.793650174911570971e+00,0.000000000000000000e+00
3.700000000000002592e-02,1.000508592028905319e+01,6.071430206876156088e-01,9.788849009463167050e+00,0.000000000000000000e+00
3.800000000000002681e-02,1.000570275980375534e+01,6.504739339093258410e-01,9.784068922444483007e+00,0.000000000000000000e+00
3.900000000000002770e-02,1.000636325213207911e+01,6.952224132311328741e-01,9.779306953861313545e+00,0.000000000000000000e+00
4.000000000000002859e-02,1.000706881485054645e+01,7.413885046055606054e-01,9.774559964481058572e+00,0.000000000000000000e+00
4.100000000000002948e-02,1.000782086558149686e+01,7.889722534098129181e-01,9.769824630599133641e+00,0.000000000000000000e+00
4.200000000000003036e-02,1.000862082199251013e+01,8.379737044083926945e-01,9.765097438915237404e+00,0.000000000000000000e+00
4.300000000000003125e-02,1.000947010179577923e+01,8.883929017170388853e-01,9.760374681531722274e+00,0.000000000000000000e+00
4.400000000000003214e-02,1.001037012274745841e+01,9.402298887684583661e-01,9.755652469633176338e+00,0.000000000000000000e+00
4.500000000000003303e-02,1.001132228623931475e+01,9.928283714719853270e-01,9.750927574025611833e+00,0.000000000000000000e+00
4.600000000000003392e-02,1.001232707209605799e+01,1.045532027870212710e+00,9.746197057711055933e+00,0.000000000000000000e+00
4.700000000000003481e-02,1.001338458549156485e+01,1.098340858790001873e+00,9.741457970274371547e+00,0.000000000000000000e+00
4.800000000000003569e-02,1.001449493160048299e+01,1.151254864818503920e+00,9.736707348318708100e+00,0.000000000000000000e+00
4.900000000000003658e-02,1.001565821559800007e+01,1.204274046321156977e+00,9.731942299127521068e+00,0.000000000000000000e+00
5.000000000000003747e-02,1.001687454265962174e+01,1.257398403460032066e+00,9.727282107007509282e+00,0.000000000000000000e+00
5.100000000000003836e-02,1.001814401796061915e+01,1.310627921583822353e+00,9.722839932412673747e+00,0.000000000000000000e+00
5.200000000000003925e-02,1.001946674665481041e+01,1.363962580445392092e+00,9.718603941063959084e+00,0.000000000000000000e+00
5.300000000000004013e-02,1.002084283388103358e+01,1.417402371545112283e+00,9.714561557769537004e+00,0.000000000000000000e+00
5.400000000000004102e-02,1.002227238476945637e+01,1.470947285669554461e+00,9.710699570507754785e+00,0.000000000000000000e+00
5.500000000000004191e-02,1.002375550444091346e+01,1.524597313106855534e+00,9.707004104086401242e+00,0.000000000000000000e+00
5.600000000000004280e-02,1.002529229800646604e+01,1.578352443949875061e+00,9.703460592429227205e+00,0.000000000000000000e+00
5.700000000000004369e-02,1.002688287056729521e+01,1.632212668507554199e+00,9.700053957435837759e+00,0.000000000000000000e+00
5.800000000000004458e-02,1.002852732721502704e+01,1.686177977846860410e+00,9.696768532451665479e+00,0.000000000000000000e+00
5.900000000000004546e-02,1.003022577303264029e+01,1.740248364488594435e+00,9.693588769326114019e+00,0.000000000000000000e+00
6.000000000000004635e-02,1.003197831309521959e+01,1.794423819582136037e+00,9.690497943357458510e+00,0.000000000000000000e+00
6.100000000000004724e-02,1.003378505247153996e+01,1.848704345439998287e+00,9.687479738495149206e+00,0.000000000000000000e+00
6.200000000000004813e-02,1.003564609623268034e+01,1.903089944967712999e+00,9.684516891008717820e+00,0.000000000000000000e+00
6.300000000000004208e-02,1.003756154945390477e+01,1.957580627228245440e+00,9.681592297768425226e+00,0.000000000000000000e+00
6.400000000000004297e-02,1.003953151722117809e+01,2.012176409125026488e+00,9.678688703966862761e+00,0.000000000000000000e+00
6.500000000000004385e-02,1.004155610463940285e+01,2.066877317253392743e+00,9.675788723361717913e+00,0.000000000000000000e+00
6.600000000000004474e-02,1.004363541684254457e+01,2.121683389872690118e+00,9.672874951100883578e+00,0.000000000000000000e+00
6.700000000000004563e-02,1.004576955900574120e+01,2.176594678933903015e+00,9.669929977263507226e+00,0.000000000000000000e+00
6.800000000000004652e-02,1.004795863635945175e+01,2.231611252198251627e+00,9.666936634890426205e+00,0.000000000000000000e+00
6.900000000000004741e-02,1.005020275420589293e+01,2.286733218802427192e+00,9.663877700872829379e+00,0.000000000000000000e+00
7.000000000000004829e-02,1.005250201797562504e+01,2.341960727127432307e+00,9.660736276570029091e+00,0.000000000000000000e+00
7.100000000000004918e-02,1.005485653323567696e+01,2.397293857824501107e+00,9.657495863620084720e+00,0.000000000000000000e+00
7.200000000000005007e-02,1.005726640561594998e+01,2.452732614181202031e+00,9.654140123453441191e+00,0.000000000000000000e+00
7.300000000000005096e-02,1.005973174073304044e+01,2.508276927472359752e+00,9.650653222741485848e+00,0.000000000000000000e+00
7.400000000000005185e-02,1.006225264411939158e+01,2.563926662179432103e+00,9.647019847429216810e+00,0.000000000000000000e+00
7.500000000000005274e-02,1.006482922115668543e+01,2.619681634008892424e+00,9.643225271932644560e+00,0.000000000000000000e+00
7.600000000000005362e-02,1.006746157703931388e+01,2.675541679072586998e+00,9.639255257570814805e+00,0.000000000000000000e+00
7.700000000000005451e-02,1.007014981680986310e+01,2.731506685780086041e+00,9.635096234131276915e+00,0.000000000000000000e+00
7.800000000000005540e-02,1.007289404541058708e+01,2.787576590132871956e+00,9.630735350002307626e+00,0.000000000000000000e+00
7.900000000000005629e-02,1.007569436772972793e+01,2.843751370313961413e+00,9.626160776277215447e+00,0.000000000000000000e+00
8.000000000000005718e-02,1.007855088864257631e+01,2.900031041895945183e+00,9.621361396000061461e+00,0.000000000000000000e+00
8.100000000000005806e-02,1.008146371304787081e+01,2.956415653600232396e+00,9.616326808417980487e+00,0.000000000000000000e+00
8.200000000000005895e-02,1.008443294590005834e+01,3.012905281565465554e+00,9.611047433249170879e+00,0.000000000000000000e+00
8.300000000000005984e-02,1.008745869223724156e+01,3.069499999498513265e+00,9.605515387055497456e+00,0.000000000000000000e+00
8.400000000000006073e-02,1.009054105715997096e+01,3.126199845748188544e+00,9.599723112524987556e+00,0.000000000000000000e+00
8.500000000000006162e-02,1.009368014580410389e+01,3.183004851066915109e+00,9.593664231334766868e+00,0.000000000000000000e+00
8.600000000000006251e-02,1.009687606333526411e+01,3.239915042314275073e+00,9.587333985391142122e+00,0.000000000000000000e+00
8.700000000000006339e-02,1.010012891494512388e+01,3.296930442994990162e+00,9.580727935228697589e+00,0.000000000000000000e+00
8.800000000000006428e-02,1.010343880584815857e+01,3.354051073778941294e+00,9.573843713760268770e+00,0.000000000000000000e+00
8.900000000000006517e-02,1.010680584127891990e+01,3.411276952953854913e+00,9.566679420155143276e+00,0.000000000000000000e+00
9.000000000000006606e-02,1.011023012648975339e+01,3.468608096799987273e+00,9.559234604053086670e+00,0.000000000000000000e+00
9.100000000000006695e-02,1.011371176674886208e+01,3.526044519900779495e+00,9.551510412721505361e+00,0.000000000000000000e+00
9.200000000000006783e-02,1.011725086733867585e+01,3.583586235400918252e+00,9.543508338210651587e+00,0.000000000000000000e+00
9.300000000000006872e-02,1.012084753355446587e+01,3.641233255221150156e+00,9.535232234506940685e+00,0.000000000000000000e+00
9.400000000000006961e-02,1.012450187070316510e+01,3.698985590237476639e+00,9.526686660150700092e+00,0.000000000000000000e+00
9.500000000000007050e-02,1.012821398410236107e+01,3.756843250430955905e+00,9.517877010348867017e+00,0.000000000000000000e+00
9.600000000000007139e-02,1.013198397907943082e+01,3.814806245013202091e+00,9.508810514383139179e+00,0.000000000000000000e+00
9.700000000000007228e-02,1.013581196097079840e+01,3.872874582531739218e+00,9.499495883795054496e+00,0.000000000000000000e+00
9.800000000000007316e-02,1.013969803512129353e+01,3.931048270958614310e+00,9.489942395713113044e+00,0.000000000000000000e+00
9.900000000000007405e-02,1.014364230688359569e+01,3.989327317765059000e+00,9.480160462075266636e+00,0.000000000000000000e+00
1.000000000000000749e-01,1.014764488161774381e+01,4.047711729984496465e+00,9.470055747207998920e+00,0.000000000000000000e+00
1.010000000000000758e-01,1.015170586468895841e+01,4.106201439237034734e+00,9.459655265894561182e+00,0.000000000000000000e+00
1.020000000000000767e-01,1.015582536136322744e+01,4.164796373572390742e+00,9.449128605942522796e+00,0.000000000000000000e+00
1.030000000000000776e-01,1.016000347686594907e+01,4.223496534371673050e+00,9.438513489981261273e+00,0.000000000000000000e+00
1.040000000000000785e-01,1.016424031642390879e+01,4.282301923044563807e+00,9.427809665670727313e+00,0.000000000000000000e+00
1.050000000000000794e-01,1.016853598526530966e+01,4.341212541028703242e+00,9.417016894689144380e+00,0.000000000000000000e+00
1.060000000000000803e-01,1.017289058861979534e+01,4.400228389789070604e+00,9.406134952461494336e+00,0.000000000000000000e+00
1.070000000000000812e-01,1.017730423171848386e+01,4.459349470817351779e+00,9.395163627898801550e+00,0.000000000000000000e+00
1.080000000000000820e-01,1.018177701979398719e+01,4.518575785631302466e+00,9.384102723143078251e+00,0.000000000000000000e+00
1.090000000000000829e-01,1.018630905808044318e+01,4.577907335774112241e+00,9.372952053321331078e+00,0.000000000000000000e+00
1.100000000000000838e-01,1.019090045181353865e+01,4.637344122813756186e+00,9.361711446299414874e+00,0.000000000000000000e+00
1.110000000000000847e-01,1.019555130623053429e+01,4.696886148342350964e+00,9.350380742453989313e+00,0.000000000000000000e+00
1.120000000000000856e-01,1.020026172657028596e+01,4.756533413975508218e+00,9.338959794441844764e+00,0.000000000000000000e+00
1.130000000000000865e-01,1.020503181807327131e+01,4.816285921351688870e+00,9.327448466980424513e+00,0.000000000000000000e+00
1.140000000000000874e-01,1.020986168598161292e+01,4.876143672131563633e+00,9.315846636635543021e+00,0.000000000000000000e+00
1.150000000000000883e-01,1.021475143553909604e+01,4.936106667997377073e+00,9.304154191610985336e+00,0.000000000000000000e+00
1.160000000000000892e-01,1.021970117199119699e+01,4.996174910652307233e+00,9.292371031555250127e+00,0.000000000000000000e+00
1.170000000000000900e-01,1.022471100058509563e+01,5.056348401819844796e+00,9.280497067349749329e+00,0.000000000000000000e+00
1.180000000000000909e-01,1.022978102656970201e+01,5.116627143243168696e+00,9.268532220935068011e+00,0.000000000000000000e+00
1.190000000000000918e-01,1.023491135519567230e+01,5.177011136684528836e+00,9.256476425114215090e+00,0.000000000000000000e+00
1.200000000000000927e-01,1.024010209171543018e+01,5.237500383924643899e+00,9.244329623381446481e+00,0.000000000000000000e+00
1.210000000000000936e-01,1.024535334138318454e+01,5.298094886762095612e+00,9.232091769746757492e+00,0.000000000000000000e+00
1.220000000000000945e-01,1.025066520945494553e+01,5.358794647012742551e+00,9.219762828564178392e+00,0.000000000000000000e+00
1.230000000000000954e-01,1.025603780118854402e+01,5.419599666509132163e+00,9.207342774367063498e+00,0.000000000000000000e+00
1.240000000000000963e-01,1.026147122184364591e+01,5.480509947099929668e+00,9.194831591714256902e+00,0.000000000000000000e+00
1.250000000000000833e-01,1.026696557668177157e+01,5.541525490649356733e+00,9.182229275025608928e+00,0.000000000000000000e+00
1.260000000000000842e-01,1.027252097096630479e+01,5.602646299036639910e+00,9.169535828447447301e+00,0.000000000000000000e+00
1.270000000000000850e-01,1.027813750996251585e+01,5.663872374155471512e+00,9.156751265688837904e+00,0.000000000000000000e+00
1.280000000000000859e-01,1.028381529893757040e+01,5.725203717913476709e+00,9.143875609886233491e+00,0.000000000000000000e+00
1.290000000000000868e-01,1.028955444316054368e+01,5.786640332231682393e+00,9.130908893471488597e+00,0.000000000000000000e+00
1.300000000000000877e-01,1.029535504790243650e+01,5.848182219044019803e+00,9.117851158024961933e+00,0.000000000000000000e+00
1.310000000000000886e-01,1.030121721843618410e+01,5.909829380296823587e+00,9.104702454155985336e+00,0.000000000000000000e+00
1.320000000000000895e-01,1.030714106003667396e+01,5.971581817948337090e+00,9.091462841371770409e+00,0.000000000000000000e+00
1.330000000000000904e-01,1.031312667798075289e+01,6.033439533968239843e+00,9.078132387951272975e+00,0.000000000000000000e+00
1.340000000000000913e-01,1.031917417754723942e+01,6.095402530337191926e+00,9.064711171003802193e+00,0.000000000000000000e+00
1.350000000000000921e-01,1.032528366274774712e+01,6.157420037003538127e+00,9.051199400584639676e+00,0.000000000000000000e+00
1.360000000000000930e-01,1.033145516630307448e+01,6.219441279515450560e+00,9.037597347795006897e+00,0.000000000000000000e+00
1.370000000000000939e-01,1.033768869194801354e+01,6.281466253226066776e+00,9.023905291926295646e+00,0.000000000000000000e+00
1.380000000000000948e-01,1.034398424341271649e+01,6.343494953520163904e+00,9.010123520286594356e+00,0.000000000000000000e+00
1.390000000000000957e-01,1.035034182442272765e+01,6.405527375813471203e+00,8.996252328027397382e+00,0.000000000000000000e+00
1.400000000000000966e-01,1.035676143869901189e+01,6.467563515552010145e+00,8.982292017985662014e+00,0.000000000000000000e+00
1.410000000000000975e-01,1.036324308995799015e+01,6.529603368211449599e+00,8.968242900514205473e+00,0.000000000000000000e+00
1.420000000000000984e-01,1.036978678191156256e+01,6.591646929296487656e+00,8.954105293332137450e+00,0.000000000000000000e+00
1.430000000000000993e-01,1.037639251826714215e+01,6.653694194340247670e+00,8.939879521368125026e+00,0.000000000000000000e+00
1.440000000000001001e-01,1.038306030272768155e+01,6.715745158903700940e+00,8.925565916618088735e+00,0.000000000000000000e+00
1.450000000000001010e-01,1.038979013899169956e+01,6.777799818575105384e+00,8.911164817995036458e+00,0.000000000000000000e+00
1.460000000000001019e-01,1.039658203075330967e+01,6.839858168969466412e+00,8.896676571189583882e+00,0.000000000000000000e+00
1.470000000000001028e-01,1.040343598170224482e+01,6.901920205728018232e+00,8.882101528541099356e+00,0.000000000000000000e+00
1.480000000000001037e-01,1.041035199552388768e+01,6.963985924517720250e+00,8.867440048897583083e+00,0.000000000000000000e+00
1.490000000000001046e-01,1.041733007589929194e+01,7.026055321030781009e+00,8.852692497482074430e+00,0.000000000000000000e+00
1.500000000000001055e-01,1.042437022650520895e+01,7.088128390984183014e+00,8.837886962773266575e+00,0.000000000000000000e+00
1.510000000000001064e-01,1.043147245101433640e+01,7.150205145501741910e+00,8.823050074416871169e+00,0.000000000000000000e+00
1.520000000000001072e-01,1.043863675311888706e+01,7.212285610359007393e+00,8.808180148016075961e+00,0.000000000000000000e+00
1.530000000000001081e-01,1.044586313653314669e+01,7.274369803297861203e+00,8.793275535122946351e+00,0.000000000000000000e+00
1.540000000000001090e-01,1.045315160498943285e+01,7.336457743342235105e+00,8.778334623452824559e+00,0.000000000000000000e+00
1.550000000000001099e-01,1.046050216223937923e+01,7.398549450811220396e+00,8.763355837070196941e+00,0.000000000000000000e+00
1.560000000000001108e-01,1.046791481205523056e+01,7.460644947331094734e+00,8.748337636957344898e+00,0.000000000000000000e+00
1.570000000000001117e-01,1.047538955823115892e+01,7.522744255798492929e+00,8.733278519175286192e+00,0.000000000000000000e+00
1.580000000000001126e-01,1.048292640458449654e+01,7.584847400388492034e+00,8.718177014055045859e+00,0.000000000000000000e+00
