Time (s),Altitude (m),Velocity (m/s),Angular Velocity (rad/s),Fin Cant Angle (deg)
0.000000000000000000e+00,1.000000000000000000e+01,0.000000000000000000e+00,9.985122134512712577e+00,0.000000000000000000e+00
1.000000000000000021e-03,9.999997794124720230e+00,-9.084026838604899318e-03,9.970112402335486124e+00,0.000000000000000000e+00
2.000000000000000042e-03,9.999986825640799992e+00,-1.675261162207030557e-02,9.954971474266267606e+00,0.000000000000000000e+00
3.000000000000000062e-03,9.999968510064672245e+00,-2.300542682040956910e-02,9.939700036606112121e+00,0.000000000000000000e+00
4.000000000000000083e-03,9.999944263177386716e+00,-2.784242195178241244e-02,9.924298788855900000e+00,0.000000000000000000e+00
5.000000000000000104e-03,9.999915500810473645e+00,-3.126354654823889495e-02,9.908768441538601479e+00,0.000000000000000000e+00
6.000000000000000125e-03,9.999883638845924239e+00,-3.326875015693191856e-02,9.893109714140052802e+00,0.000000000000000000e+00
7.000000000000000146e-03,9.999850093216183566e+00,-3.385798234120345612e-02,9.877323333161969643e+00,0.000000000000000000e+00
8.000000000000000167e-03,9.999816279904125693e+00,-3.303119268160481514e-02,9.861410030281328787e+00,0.000000000000000000e+00
9.000000000000001055e-03,9.999783614943041243e+00,-3.078833077692497491e-02,9.845370540610307586e+00,0.000000000000000000e+00
1.000000000000000194e-02,9.999753514416619637e+00,-2.712934624528958935e-02,9.829205601052199981e+00,0.000000000000000000e+00
1.100000000000000283e-02,9.999727394458926000e+00,-2.205418872538825875e-02,9.812915948746475436e+00,0.000000000000000000e+00
1.200000000000000372e-02,9.999706671254381618e+00,-1.556280787786810602e-02,9.796502319601364306e+00,0.000000000000000000e+00
1.300000000000000461e-02,9.999692761037742628e+00,-7.655153386937880652e-03,9.779965446906453863e+00,0.000000000000000000e+00
1.400000000000000550e-02,9.999687080094075142e+00,1.668825037732708100e-03,9.763306060025561450e+00,0.000000000000000000e+00
1.500000000000000638e-02,9.999691044758730385e+00,1.240917765882715296e-02,9.746524883157071883e+00,0.000000000000000000e+00
1.600000000000000727e-02,9.999706071417314490e+00,2.456595470882882992e-02,9.729622634178319629e+00,0.000000000000000000e+00
1.700000000000000816e-02,9.999733576505660082e+00,3.813920638709233230e-02,9.712600023540547411e+00,0.000000000000000000e+00
1.800000000000000905e-02,9.999774976509788971e+00,5.312898285648696983e-02,9.695457753236080833e+00,0.000000000000000000e+00
1.900000000000000994e-02,9.999831687965876625e+00,6.953533423960223114e-02,9.678196515832009794e+00,0.000000000000000000e+00
2.000000000000001082e-02,9.999905127460214871e+00,8.735831061449357560e-02,9.660816993553662968e+00,0.000000000000000000e+00
2.100000000000001171e-02,9.999996711629158597e+00,1.065979620098889830e-01,9.643319857428062747e+00,0.000000000000000000e+00
2.200000000000001260e-02,1.000010785715908135e+01,1.272543383999048261e-01,9.625705766478745318e+00,0.000000000000000000e+00
2.300000000000001349e-02,1.000023998078631671e+01,1.493274896981933164e-01,9.607975366979220055e+00,0.000000000000000000e+00
2.400000000000001438e-02,1.000039449929709612e+01,1.728174657515255952e-01,9.590129291753335394e+00,0.000000000000000000e+00
2.500000000000001527e-02,1.000057282952748139e+01,1.977243163328324393e-01,9.572168159511264207e+00,0.000000000000000000e+00
2.600000000000001615e-02,1.000077638836328831e+01,2.240480911335969993e-01,9.554092574255824033e+00,0.000000000000000000e+00
2.700000000000001704e-02,1.000100659274000670e+01,2.517888397556872770e-01,9.535903124714003809e+00,0.000000000000000000e+00
2.800000000000001793e-02,1.000126485964270273e+01,2.809466117025032905e-01,9.517600383817413245e+00,0.000000000000000000e+00
2.900000000000001882e-02,1.000155260610592478e+01,3.115214563695410943e-01,9.499184908217880974e+00,0.000000000000000000e+00
3.000000000000001971e-02,1.000187124921358617e+01,3.435134230343226402e-01,9.480657237864134501e+00,0.000000000000000000e+00
3.100000000000002059e-02,1.000222220609885149e+01,3.769225608456099885e-01,9.462017895599151629e+00,0.000000000000000000e+00
3.200000000000002148e-02,1.000260689394400160e+01,4.117489188119982657e-01,9.443267386791820428e+00,0.000000000000000000e+00
3.300000000000002237e-02,1.000302672998028974e+01,4.479925457898186192e-01,9.424406199007831830e+00,0.000000000000000000e+00
3.400000000000002326e-02,1.000348313148779056e+01,4.856534904704122302e-01,9.405434801740824469e+00,0.000000000000000000e+00
3.500000000000002415e-02,1.000397751579522954e+01,5.247318013667070513e-01,9.386353646152002739e+00,0.000000000000000000e+00
3.600000000000002504e-02,1.000451130027979829e+01,5.652275267990863883e-01,9.367163164822322585e+00,0.000000000000000000e+00
3.700000000000002592e-02,1.000508590236696627e+01,6.071407148805660903e-01,9.347863771613253547e+00,0.000000000000000000e+00
3.800000000000002681e-02,1.000570273953026224e+01,6.504714135013039966e-01,9.328455861479413969e+00,0.000000000000000000e+00
3.900000000000002770e-02,1.000636322929105049e+01,6.952196703124164934e-01,9.308939810340028487e+00,0.000000000000000000e+00
4.000000000000002859e-02,1.000706878921829102e+01,7.413855327091298797e-01,9.289315974993563430e+00,0.000000000000000000e+00
4.100000000000002948e-02,1.000782083692827484e+01,7.889690478131790030e-01,9.269584693061329261e+00,0.000000000000000000e+00
4.200000000000003036e-02,1.000862079008434868e+01,8.379702624545137812e-01,9.249746282965647382e+00,0.000000000000000000e+00
4.300000000000003125e-02,1.000947006639662007e+01,8.883892231523183858e-01,9.229801043877664313e+00,0.000000000000000000e+00
4.400000000000003214e-02,1.001037008362163938e+01,9.402259760952744738e-01,9.209749237320746573e+00,0.000000000000000000e+00
4.500000000000003303e-02,1.001132224315445640e+01,9.928242303342879049e-01,9.189591286842885509e+00,0.000000000000000000e+00
4.600000000000003392e-02,1.001232702482597503e+01,1.045527666532957145e+00,9.169327718033635222e+00,0.000000000000000000e+00
4.700000000000003481e-02,1.001338453381888094e+01,1.098336287840781189e+00,9.148959070130615601e+00,0.000000000000000000e+00
4.800000000000003569e-02,1.001449487531895777e+01,1.151250097173140308e+00,9.128485895843752473e+00,0.000000000000000000e+00
4.900000000000003658e-02,1.001565815451484909e+01,1.204269097205734829e+00,9.107908761060519609e+00,0.000000000000000000e+00
5.000000000000003747e-02,1.001687447659782215e+01,1.257393290368745919e+00,9.087363253811016506e+00,0.000000000000000000e+00
5.100000000000003836e-02,1.001814394676184961e+01,1.310622695221384859e+00,9.066983316875077747e+00,0.000000000000000000e+00
5.200000000000003925e-02,1.001946667022622961e+01,1.363957331905568005e+00,9.046767249228468089e+00,0.000000000000000000e+00
5.300000000000004013e-02,1.002084275222383170e+01,1.417397205038049668e+00,9.026713350495565891e+00,0.000000000000000000e+00
5.400000000000004102e-02,1.002227229799211727e+01,1.470942319127732656e+00,9.006819920870096752e+00,0.000000000000000000e+00
5.500000000000004191e-02,1.002375541277303306e+01,1.524592678567327608e+00,8.987085260555986110e+00,0.000000000000000000e+00
5.600000000000004280e-02,1.002529220181288849e+01,1.578348287625239266e+00,8.967507669563334005e+00,0.000000000000000000e+00
5.700000000000004369e-02,1.002688277036223496e+01,1.632209150437797573e+00,8.948085447231852285e+00,0.000000000000000000e+00
5.800000000000004458e-02,1.002852722367572547e+01,1.686175271001621567e+00,8.928816891927565891e+00,0.000000000000000000e+00
5.900000000000004546e-02,1.003022566701197960e+01,1.740246653166345192e+00,8.909700300790101224e+00,0.000000000000000000e+00
6.000000000000004635e-02,1.003197820563342901e+01,1.794423300627618456e+00,8.890733969166706885e+00,0.000000000000000000e+00
6.100000000000004724e-02,1.003378494480616823e+01,1.848705216920286665e+00,8.871916190580547479e+00,0.000000000000000000e+00
6.200000000000004813e-02,1.003564598979978761e+01,1.903092405411905386e+00,8.853245256030215060e+00,0.000000000000000000e+00
6.300000000000004208e-02,1.003756144588720645e+01,1.957584869296529861e+00,8.834719453956827451e+00,0.000000000000000000e+00
6.400000000000004297e-02,1.003953141834449703e+01,2.012182611588690495e+00,8.816337069763331868e+00,0.000000000000000000e+00
6.500000000000004385e-02,1.004155601245070528e+01,2.066885635117680309e+00,8.798096385496885219e+00,0.000000000000000000e+00
6.600000000000004474e-02,1.004363533348766424e+01,2.121693942522120402e+00,8.779995679554893684e+00,0.000000000000000000e+00
6.700000000000004563e-02,1.004576948673980041e+01,2.176607536244738128e+00,8.762033226352874848e+00,0.000000000000000000e+00
6.800000000000004652e-02,1.004795857749393662e+01,2.231626418527524081e+00,8.744207295977147965e+00,0.000000000000000000e+00
6.900000000000004741e-02,1.005020271103909302e+01,2.286750591407101574e+00,8.726516153878343118e+00,0.000000000000000000e+00
7.000000000000004829e-02,1.005250199266627931e+01,2.341980056710352365e+00,8.708958060709369065e+00,0.000000000000000000e+00
7.100000000000004918e-02,1.005485652766828331e+01,2.397314816050395425e+00,8.691531271757844124e+00,0.000000000000000000e+00
7.200000000000005007e-02,1.005726642133945781e+01,2.452754870822831279e+00,8.674234036901497191e+00,0.000000000000000000e+00
7.300000000000005096e-02,1.005973177897550030e+01,2.508300222202297203e+00,8.657064600216516581e+00,0.000000000000000000e+00
7.400000000000005185e-02,1.006225270587323095e+01,2.563950871139317744e+00,8.640021199706172439e+00,0.000000000000000000e+00
7.500000000000005274e-02,1.006482930733037229e+01,2.619706818357486533e+00,8.623102067019924988e+00,0.000000000000000000e+00
7.600000000000005362e-02,1.006746168864531832e+01,2.675568064350983821e+00,8.606305427231367489e+00,0.000000000000000000e+00
7.700000000000005451e-02,1.007014995511690181e+01,2.731534609382372025e+00,8.589629498694710819e+00,0.000000000000000000e+00
7.800000000000005540e-02,1.007289421204416868e+01,2.787606453480802049e+00,8.573072492620957163e+00,0.000000000000000000e+00
7.900000000000005629e-02,1.007569456472614000e+01,2.843783596440538464e+00,8.556632612855006315e+00,0.000000000000000000e+00
8.000000000000005718e-02,1.007855111846157570e+01,2.900066037819853282e+00,8.540308055866026038e+00,0.000000000000000000e+00
8.100000000000005806e-02,1.008146397854874365e+01,2.956453776940306977e+00,8.524097010485521153e+00,0.000000000000000000e+00
8.200000000000005895e-02,1.008443325028517812e+01,3.012946812886421633e+00,8.507997657555099735e+00,0.000000000000000000e+00
8.300000000000005984e-02,1.008745903896744345e+01,3.069545144505750223e+00,8.492008169871974488e+00,0.000000000000000000e+00
8.400000000000006073e-02,1.009054144989089963e+01,3.126248770409359334e+00,8.476126712138608355e+00,0.000000000000000000e+00
8.500000000000006162e-02,1.009368058834946424e+01,3.183057688972742660e+00,8.460351440653077759e+00,0.000000000000000000e+00
8.600000000000006251e-02,1.009687655963537622e+01,3.239971898337156375e+00,8.444680503359746737e+00,0.000000000000000000e+00
8.700000000000006339e-02,1.010012946903896491e+01,3.296991396411420361e+00,8.429112039561134750e+00,0.000000000000000000e+00
8.800000000000006428e-02,1.010343942184841382e+01,3.354116180874180397e+00,8.413644179955610980e+00,0.000000000000000000e+00
8.900000000000006517e-02,1.010680652334953677e+01,3.411346249176669065e+00,8.398275046552029721e+00,0.000000000000000000e+00
9.000000000000006606e-02,1.011023087882554528e+01,3.468681598545962697e+00,8.383002752731735896e+00,0.000000000000000000e+00
9.100000000000006695e-02,1.011371259355682994e+01,3.526122225988746361e+00,8.367825403049371502e+00,0.000000000000000000e+00
9.200000000000006783e-02,1.011725177282073673e+01,3.583668128295604216e+00,8.352741093240517500e+00,0.000000000000000000e+00
9.300000000000006872e-02,1.012084852189135731e+01,3.641319302045881834e+00,8.337747910487468772e+00,0.000000000000000000e+00
9.400000000000006961e-02,1.012450294603931411e+01,3.699075743613081002e+00,8.322843933104488556e+00,0.000000000000000000e+00
9.500000000000007050e-02,1.012821515053155785e+01,3.756937449170818510e+00,8.308027231040425065e+00,0.000000000000000000e+00
9.600000000000007139e-02,1.013198524063116857e+01,3.814904414699385793e+00,8.293295865596602923e+00,0.000000000000000000e+00
9.700000000000007228e-02,1.013581332159716553e+01,3.872976635992933847e+00,8.278647889621531419e+00,0.000000000000000000e+00
9.800000000000007316e-02,1.013969949868432074e+01,3.931154108667255453e+00,8.264081348023374574e+00,0.000000000000000000e+00
9.900000000000007405e-02,1.014364387714298310e+01,3.989436828168192228e+00,8.249594277392921171e+00,0.000000000000000000e+00
1.000000000000000749e-01,1.014764656221891315e+01,4.047824789780714028e+00,8.235159210890078185e+00,0.000000000000000000e+00
1.010000000000000758e-01,1.015170765915332041e+01,4.106317996647897317e+00,8.220749271360782373e+00,0.000000000000000000e+00
1.020000000000000767e-01,1.015582727319403133e+01,4.164916453412411457e+00,8.206363318070833301e+00,0.000000000000000000e+00
1.030000000000000776e-01,1.016000550959030235e+01,4.223620157253827223e+00,8.192000214251486057e+00,0.000000000000000000e+00
1.040000000000000785e-01,1.016424247358855126e+01,4.282429105278267478e+00,8.177658827454038715e+00,0.000000000000000000e+00
1.050000000000000794e-01,1.016853827043228797e+01,4.341343294523436036e+00,8.163338029856177513e+00,0.000000000000000000e+00
1.060000000000000803e-01,1.017289300536204522e+01,4.400362721963708701e+00,8.149036698577173610e+00,0.000000000000000000e+00
1.070000000000000812e-01,1.017730678361531815e+01,4.459487384515334440e+00,8.134753715886523295e+00,0.000000000000000000e+00
1.080000000000000820e-01,1.018177971042650398e+01,4.518717279041720047e+00,8.120487969223702862e+00,0.000000000000000000e+00
1.090000000000000829e-01,1.018631189102685397e+01,4.578052402358820494e+00,8.106238351805984621e+00,0.000000000000000000e+00
1.100000000000000838e-01,1.019090343064442550e+01,4.637492751240600342e+00,8.092003762548525714e+00,0.000000000000000000e+00
1.110000000000000847e-01,1.019555443450404120e+01,4.697038322424528900e+00,8.077783106500065813e+00,0.000000000000000000e+00
1.120000000000000856e-01,1.020026500782725520e+01,4.756689112617200621e+00,8.063575295115484209e+00,0.000000000000000000e+00
1.130000000000000865e-01,1.020503525583232118e+01,4.816445118499976807e+00,8.049379246201468163e+00,0.000000000000000000e+00
1.140000000000000874e-01,1.020986528373417102e+01,4.876306336734729463e+00,8.035193884558600175e+00,0.000000000000000000e+00
1.150000000000000883e-01,1.021475519674439525e+01,4.936272763969602018e+00,8.021018141964509240e+00,0.000000000000000000e+00
1.160000000000000892e-01,1.021970510007122890e+01,4.996344396844804692e+00,8.006850957507010591e+00,0.000000000000000000e+00
1.170000000000000900e-01,1.022471509891954966e+01,5.056521231998488020e+00,7.992691277743189104e+00,0.000000000000000000e+00
1.180000000000000909e-01,1.022978529849087082e+01,5.116803266072633249e+00,7.978538057054423760e+00,0.000000000000000000e+00
1.190000000000000918e-01,1.023491580398335188e+01,5.177190495718984486e+00,7.964390257909528259e+00,0.000000000000000000e+00
1.200000000000000927e-01,1.024010672059180571e+01,5.237682917604987054e+00,7.950246850816537147e+00,0.000000000000000000e+00
1.210000000000000936e-01,1.024535815350772161e+01,5.298280528419786251e+00,7.936106814567632561e+00,0.000000000000000000e+00
1.220000000000000945e-01,1.025067020791927952e+01,5.358983324880196797e+00,7.921969136932014877e+00,0.000000000000000000e+00
1.230000000000000954e-01,1.025604298901138733e+01,5.419791303736690047e+00,7.907832814270649102e+00,0.000000000000000000e+00
1.240000000000000963e-01,1.026147660196570932e+01,5.480704461779409620e+00,7.893696852454413104e+00,0.000000000000000000e+00
1.250000000000000833e-01,1.026697115196071231e+01,5.541722795844139071e+00,7.879560266249577616e+00,0.000000000000000000e+00
1.260000000000000842e-01,1.027252674417171008e+01,5.602846302818297985e+00,7.865422079973810376e+00,0.000000000000000000e+00
1.270000000000000850e-01,1.027814348377091491e+01,5.664074979646906094e+00,7.851281327682708699e+00,0.000000000000000000e+00
1.280000000000000859e-01,1.028382147592750151e+01,5.725408823338522524e+00,7.837137053419375832e+00,0.000000000000000000e+00
1.290000000000000868e-01,1.028956082580766740e+01,5.786847830971192153e+00,7.822988311239392978e+00,0.000000000000000000e+00
1.300000000000000877e-01,1.029536163857470576e+01,5.848391999698316468e+00,7.808834165366743463e+00,0.000000000000000000e+00
1.310000000000000886e-01,1.030122401938908006e+01,5.910041326754490676e+00,7.794673690557645251e+00,0.000000000000000000e+00
1.320000000000000895e-01,1.030714807340850925e+01,5.971795809461348803e+00,7.780505854844940394e+00,0.000000000000000000e+00
1.330000000000000904e-01,1.031313390509310679e+01,6.033654356302996291e+00,7.766329689123105950e+00,0.000000000000000000e+00
1.340000000000000913e-01,1.031918161929165301e+01,6.095616475607552154e+00,7.752145184705108605e+00,0.000000000000000000e+00
1.350000000000000921e-01,1.032529131821738488e+01,6.157632974991039454e+00,7.737951520825184559e+00,0.000000000000000000e+00
1.360000000000000930e-01,1.033146303446020298e+01,6.219653076525855084e+00,7.723747927054583684e+00,0.000000000000000000e+00
1.370000000000000939e-01,1.033769677162031897e+01,6.281676771683002869e+00,7.709533646433975207e+00,0.000000000000000000e+00
1.380000000000000948e-01,1.034399253328945534e+01,6.343704052103230850e+00,7.695307936115407976e+00,0.000000000000000000e+00
1.390000000000000957e-01,1.035035032305101410e+01,6.405734909600649729e+00,7.681070066585490963e+00,0.000000000000000000e+00
1.400000000000000966e-01,1.035677014448024913e+01,6.467769336166304228e+00,7.666819322130933756e+00,0.000000000000000000e+00
1.410000000000000975e-01,1.036325200114444911e+01,6.529807323971636102e+00,7.652555000737285340e+00,0.000000000000000000e+00
1.420000000000000984e-01,1.036979589660311341e+01,6.591848865371819244e+00,7.638276414105780177e+00,0.000000000000000000e+00
1.430000000000000993e-01,1.037640183440814035e+01,6.653893952909042397e+00,7.623982887551441934e+00,0.000000000000000000e+00
1.440000000000001001e-01,1.038306981810401375e+01,6.715942579315621330e+00,7.609673760506714402e+00,0.000000000000000000e+00
1.450000000000001010e-01,1.038979985122799299e+01,6.777994737517022195e+00,7.595348386134874730e+00,0.000000000000000000e+00
1.460000000000001019e-01,1.039659193731030662e+01,6.840050420634796957e+00,7.581006131043946716e+00,0.000000000000000000e+00
1.470000000000001028e-01,1.040344607987435133e+01,6.902109621989375832e+00,7.566646375913565592e+00,0.000000000000000000e+00
1.480000000000001037e-01,1.041036228243688733e+01,6.964172335102770006e+00,7.552268514763293084e+00,0.000000000000000000e+00
1.490000000000001046e-01,1.041734054850824620e+01,7.026238553701136702e+00,7.537871955907458954e+00,0.000000000000000000e+00
1.500000000000001055e-01,1.042438088159252985e+01,7.088308271717226106e+00,7.523439722282490472e+00,0.000000000000000000e+00
1.510000000000001064e-01,1.043148328518808121e+01,7.150381492746871182e+00,7.508955355888144112e+00,0.000000000000000000e+00
1.520000000000001072e-01,1.043864776280057605e+01,7.212458219643316681e+00,7.494419004651104999e+00,0.000000000000000000e+00
1.530000000000001081e-01,1.044587431793429566e+01,7.274538445423336164e+00,7.479830823568485165e+00,0.000000000000000000e+00
1.540000000000001090e-01,1.045316295408654739e+01,7.336622163146317099e+00,7.465190974408944413e+00,0.000000000000000000e+00
1.550000000000001099e-01,1.046051367474771077e+01,7.398709365914010405e+00,7.450499625929618119e+00,0.000000000000000000e+00
1.560000000000001108e-01,1.046792648340127485e+01,7.460800046870269320e+00,7.435756953331083885e+00,0.000000000000000000e+00
1.570000000000001117e-01,1.047540138352388261e+01,7.522894199200751864e+00,7.420963138218416688e+00,0.000000000000000000e+00
1.580000000000001126e-01,1.048293837858537181e+01,7.584991816132736098e+00,7.406118369178273042e+00,0.000000000000000000e+00
