Time (s),Altitude (m),Velocity (m/s),Angular Velocity (rad/s),Fin Cant Angle (deg)
0.000000000000000000e+00,1.000000000000000000e+01,0.000000000000000000e+00,9.981076804474794173e+00,0.000000000000000000e+00
1.000000000000000021e-03,9.999997794124723782e+00,-9.084026913591133554e-03,9.962097748643323314e+00,0.000000000000000000e+00
2.000000000000000042e-03,9.999986825640668542e+00,-1.675261222517763007e-02,9.943063302640224421e+00,0.000000000000000000e+00
3.000000000000000062e-03,9.999968510063723670e+00,-2.300542880635395721e-02,9.923973945162780197e+00,0.000000000000000000e+00
4.000000000000000083e-03,9.999944263173993875e+00,-2.784242659307761825e-02,9.904830161797491428e+00,0.000000000000000000e+00
5.000000000000000104e-03,9.999915500801636270e+00,-3.126355555135366948e-02,9.885632443402439407e+00,0.000000000000000000e+00
6.000000000000000125e-03,9.999883638826839061e+00,-3.326876567840321430e-02,9.866381284542132590e+00,0.000000000000000000e+00
7.000000000000000146e-03,9.999850093179782462e+00,-3.385800700374640149e-02,9.847077181976183979e+00,0.000000000000000000e+00
8.000000000000000167e-03,9.999816279840612054e+00,-3.303122959025000388e-02,9.827720633199318101e+00,0.000000000000000000e+00
9.000000000000001055e-03,9.999783614839403256e+00,-3.078838353508605435e-02,9.808312135029028767e+00,0.000000000000000000e+00
1.000000000000000194e-02,9.999753514256124021e+00,-2.712941897076591100e-02,9.788852182245666000e+00,0.000000000000000000e+00
1.100000000000000283e-02,9.999727394220604637e+00,-2.205428606625474408e-02,9.769341266276313718e+00,0.000000000000000000e+00
1.200000000000000372e-02,9.999706670912496875e+00,-1.556293502821820898e-02,9.749779873928815732e+00,0.000000000000000000e+00
1.300000000000000461e-02,9.999692760561234905e+00,-7.655316102410875470e-03,9.730168486162710906e+00,0.000000000000000000e+00
1.400000000000000550e-02,9.999687079446001547e+00,1.668620424752671402e-03,9.710507576919107819e+00,0.000000000000000000e+00
1.500000000000000638e-02,9.999691043895682085e+00,1.240892422435879716e-02,9.690797611979075299e+00,0.000000000000000000e+00
1.600000000000000727e-02,9.999706070288821635e+00,2.456564492285875229e-02,9.671039047871108352e+00,0.000000000000000000e+00
1.700000000000000816e-02,9.999733575053582513e+00,3.813883209963189053e-02,9.651232330824182526e+00,0.000000000000000000e+00
1.800000000000000905e-02,9.999774974667696270e+00,5.312853528421532245e-02,9.631377895738527428e+00,0.000000000000000000e+00
1.900000000000000994e-02,9.999831685658410407e+00,6.953480395315768392e-02,9.611476165235123048e+00,0.000000000000000000e+00
2.000000000000001082e-02,9.999905124602436857e+00,8.735768752643163770e-02,9.591527548704956274e+00,0.000000000000000000e+00
2.100000000000001171e-02,9.999996708125893363e+00,1.065972353634241920e-01,9.571532441419453363e+00,0.000000000000000000e+00
2.200000000000001260e-02,1.000010785290424309e+01,1.272534967584707521e-01,9.551491223679503761e+00,0.000000000000000000e+00
2.300000000000001349e-02,1.000023997566222889e+01,1.493265209358971279e-01,9.531404259970310378e+00,0.000000000000000000e+00
2.400000000000001438e-02,1.000039449317379869e+01,1.728163570445032104e-01,9.511271898197103170e+00,0.000000000000000000e+00
2.500000000000001527e-02,1.000057282226203093e+01,1.977230541514698181e-01,9.491094468921621896e+00,0.000000000000000000e+00
2.600000000000001615e-02,1.000077637979905276e+01,2.240466612358247844e-01,9.470872284646581818e+00,0.000000000000000000e+00
2.700000000000001704e-02,1.000100658270594600e+01,2.517872271812484075e-01,9.450605639123605073e+00,0.000000000000000000e+00
2.800000000000001793e-02,1.000126484795265647e+01,2.809448007682890380e-01,9.430294806740889157e+00,0.000000000000000000e+00
2.900000000000001882e-02,1.000155259255788387e+01,3.115194306659962997e-01,9.409940041849434778e+00,0.000000000000000000e+00
3.000000000000001971e-02,1.000187123358896812e+01,3.435111654228943379e-01,9.389541578227715846e+00,0.000000000000000000e+00
3.100000000000002059e-02,1.000222218816176856e+01,3.769200534573179384e-01,9.369099628503736454e+00,0.000000000000000000e+00
3.200000000000002148e-02,1.000260687344053245e+01,4.117461430470510386e-01,9.348614383655105442e+00,0.000000000000000000e+00
3.300000000000002237e-02,1.000302670663774940e+01,4.479894823183738772e-01,9.328086012523256088e+00,0.000000000000000000e+00
3.400000000000002326e-02,1.000348310501399673e+01,4.856501192344571116e-01,9.307514661313424753e+00,0.000000000000000000e+00
3.500000000000002415e-02,1.000397748587777791e+01,5.247281015830013162e-01,9.286900453227096008e+00,0.000000000000000000e+00
3.600000000000002504e-02,1.000451126658533951e+01,5.652234769631799827e-01,9.266243488058638178e+00,0.000000000000000000e+00
3.700000000000002592e-02,1.000508586454047943e+01,6.071362927719254898e-01,9.245543841769746862e+00,0.000000000000000000e+00
3.800000000000002681e-02,1.000570269719434791e+01,6.504665961894816606e-01,9.224801566222478044e+00,0.000000000000000000e+00
3.900000000000002770e-02,1.000636318204521835e+01,6.952144341643267111e-01,9.204016688879077535e+00,0.000000000000000000e+00
4.000000000000002859e-02,1.000706873663825824e+01,7.413798533973291471e-01,9.183189212512514743e+00,0.000000000000000000e+00
4.100000000000002948e-02,1.000782077856527508e+01,7.889629003252107697e-01,9.162319114945315590e+00,0.000000000000000000e+00
4.200000000000003036e-02,1.000862072546444992e+01,8.379636211033126836e-01,9.141406348835982243e+00,0.000000000000000000e+00
4.300000000000003125e-02,1.000946999502004964e+01,8.883820615876759641e-01,9.120450841524448293e+00,0.000000000000000000e+00
4.400000000000003214e-02,1.001037000496212670e+01,9.402182673162964299e-01,9.099452474974293992e+00,0.000000000000000000e+00
4.500000000000003303e-02,1.001132215665858460e+01,9.928159467952479833e-01,9.078411274752673066e+00,0.000000000000000000e+00
4.600000000000003392e-02,1.001232692991267470e+01,1.045518780166998507e+00,9.057327358156431529e+00,0.000000000000000000e+00
4.700000000000003481e-02,1.001338442987887944e+01,1.098326769991945673e+00,9.036200849777873856e+00,0.000000000000000000e+00
4.800000000000003569e-02,1.001449476171419306e+01,1.151239918618332858e+00,9.015031881259591984e+00,0.000000000000000000e+00
4.900000000000003658e-02,1.001565803057791015e+01,1.204258228179805768e+00,8.993820591316112001e+00,0.000000000000000000e+00
5.000000000000003747e-02,1.001687434163140900e+01,1.257381700592847595e+00,8.972694550892104104e+00,0.000000000000000000e+00
5.100000000000003836e-02,1.001814380003858140e+01,1.310610367285311328e+00,8.951779717911277245e+00,0.000000000000000000e+00
5.200000000000003925e-02,1.001946651100703534e+01,1.363944262164212162e+00,8.931074004736801797e+00,0.000000000000000000e+00
5.300000000000004013e-02,1.002084257976618353e+01,1.417383390688068623e+00,8.910575327332656670e+00,0.000000000000000000e+00
5.400000000000004102e-02,1.002227211155087616e+01,1.470927758198287361e+00,8.890281604759083578e+00,0.000000000000000000e+00
5.500000000000004191e-02,1.002375521160127292e+01,1.524577369904232205e+00,8.870190758352620719e+00,0.000000000000000000e+00
5.600000000000004280e-02,1.002529198516271336e+01,1.578332230868920494e+00,8.850300711035364642e+00,0.000000000000000000e+00
5.700000000000004369e-02,1.002688253748556235e+01,1.632192345995271410e+00,8.830609386475750000e+00,0.000000000000000000e+00
5.800000000000004458e-02,1.002852697382504843e+01,1.686157720013067740e+00,8.811114708598092093e+00,0.000000000000000000e+00
5.900000000000004546e-02,1.003022539944109148e+01,1.740228357466293563e+00,8.791814600694848991e+00,0.000000000000000000e+00
6.000000000000004635e-02,1.003197791959811092e+01,1.794404262700988184e+00,8.772706984808388953e+00,0.000000000000000000e+00
6.100000000000004724e-02,1.003378463956482314e+01,1.848685439853589463e+00,8.753789780803471032e+00,0.000000000000000000e+00
6.200000000000004813e-02,1.003564566461403373e+01,1.903071892839833357e+00,8.735060905843518242e+00,0.000000000000000000e+00
6.300000000000004208e-02,1.003756110002241186e+01,1.957563625344156177e+00,8.716518273453148780e+00,0.000000000000000000e+00
6.400000000000004297e-02,1.003953105107025578e+01,2.012160640809480761e+00,8.698159792954692549e+00,0.000000000000000000e+00
6.500000000000004385e-02,1.004155562304125127e+01,2.066862942427456051e+00,8.679983368432839796e+00,0.000000000000000000e+00
6.600000000000004474e-02,1.004363492122221757e+01,2.121670533129196290e+00,8.661986898253431377e+00,0.000000000000000000e+00
6.700000000000004563e-02,1.004576905090284455e+01,2.176583415576543779e+00,8.644168274014308651e+00,0.000000000000000000e+00
6.800000000000004652e-02,1.004795811737542088e+01,2.231601592153703351e+00,8.626525379986967224e+00,0.000000000000000000e+00
6.900000000000004741e-02,1.005020222593455514e+01,2.286725064959315823e+00,8.609056092259606885e+00,0.000000000000000000e+00
7.000000000000004829e-02,1.005250148187688808e+01,2.341953835798999517e+00,8.591758277909017139e+00,0.000000000000000000e+00
7.100000000000004918e-02,1.005485599050080125e+01,2.397287906178378059e+00,8.574629794298852303e+00,0.000000000000000000e+00
7.200000000000005007e-02,1.005726585710610799e+01,2.452727277296599340e+00,8.557668488167486487e+00,0.000000000000000000e+00
7.300000000000005096e-02,1.005973118699375490e+01,2.508271950040267040e+00,8.540872195008525125e+00,0.000000000000000000e+00
7.400000000000005185e-02,1.006225208546550043e+01,2.563921924977924149e+00,8.524238738164017448e+00,0.000000000000000000e+00
7.500000000000005274e-02,1.006482865782359859e+01,2.619677202355016998e+00,8.507765927957970931e+00,0.000000000000000000e+00
7.600000000000005362e-02,1.006746100937047750e+01,2.675537782089405070e+00,8.491451561248361202e+00,0.000000000000000000e+00
7.700000000000005451e-02,1.007014924540840539e+01,2.731503663767401502e+00,8.475293420235646025e+00,0.000000000000000000e+00
7.800000000000005540e-02,1.007289347123916379e+01,2.787574846640371806e+00,8.459289271912501462e+00,0.000000000000000000e+00
7.900000000000005629e-02,1.007569379216370642e+01,2.843751329621953428e+00,8.443436867279471514e+00,0.000000000000000000e+00
8.000000000000005718e-02,1.007855031348182528e+01,2.900033111285930776e+00,8.427733940757921260e+00,0.000000000000000000e+00
8.100000000000005806e-02,1.008146314049180958e+01,2.956420189864691128e+00,8.412178209028320808e+00,0.000000000000000000e+00
8.200000000000005895e-02,1.008443237849010288e+01,3.012912563248413278e+00,8.396767370684079523e+00,0.000000000000000000e+00
8.300000000000005984e-02,1.008745813277096026e+01,3.069510228984983158e+00,8.381499105441957198e+00,0.000000000000000000e+00
8.400000000000006073e-02,1.009054050862610907e+01,3.126213184280704382e+00,8.366371073257274915e+00,0.000000000000000000e+00
8.500000000000006162e-02,1.009367961134440428e+01,3.183021426001809928e+00,8.351380913934521644e+00,0.000000000000000000e+00
8.600000000000006251e-02,1.009687554621149275e+01,3.239934950676805592e+00,8.336526246342648605e+00,0.000000000000000000e+00
8.700000000000006339e-02,1.010012841850947218e+01,3.296953754499759359e+00,8.321804667700080316e+00,0.000000000000000000e+00
8.800000000000006428e-02,1.010343833351656073e+01,3.354077833334575320e+00,8.307213753302605141e+00,0.000000000000000000e+00
8.900000000000006517e-02,1.010680539650676657e+01,3.411307182720258346e+00,8.292751055534303362e+00,0.000000000000000000e+00
9.000000000000006606e-02,1.011022971274956284e+01,3.468641797877297872e+00,8.278414103660590939e+00,0.000000000000000000e+00
9.100000000000006695e-02,1.011371138750957499e+01,3.526081673715175668e+00,8.264200403433415332e+00,0.000000000000000000e+00
9.200000000000006783e-02,1.011725052604626640e+01,3.583626804841120617e+00,8.250107436214197065e+00,0.000000000000000000e+00
9.300000000000006872e-02,1.012084723361364524e+01,3.641277185570120256e+00,8.236132659011129675e+00,0.000000000000000000e+00
9.400000000000006961e-02,1.012450161545996608e+01,3.699032809936295685e+00,8.222273504058998483e+00,0.000000000000000000e+00
9.500000000000007050e-02,1.012821377682746160e+01,3.756893671705710869e+00,8.208527378415020337e+00,0.000000000000000000e+00
9.600000000000007139e-02,1.013198382295206734e+01,3.814859764390675423e+00,8.194891663727732478e+00,0.000000000000000000e+00
9.700000000000007228e-02,1.013581185906318005e+01,3.872931081265662989e+00,8.181363716247867401e+00,0.000000000000000000e+00
9.800000000000007316e-02,1.013969799038341968e+01,3.931107615384878962e+00,8.167940866683577994e+00,0.000000000000000000e+00
9.900000000000007405e-02,1.014364232212841443e+01,3.989389359601565932e+00,8.154620420053273477e+00,0.000000000000000000e+00
1.000000000000000749e-01,1.014764495950660361e+01,4.047776306589146778e+00,8.141336903107379896e+00,0.000000000000000000e+00
1.010000000000000758e-01,1.015170600771964260e+01,4.106268471823320887e+00,8.128026414649974996e+00,0.000000000000000000e+00
1.020000000000000767e-01,1.015582557199461533e+01,4.164865875033074261e+00,8.114688448864853854e+00,0.000000000000000000e+00
1.030000000000000776e-01,1.016000375756913776e+01,4.223568514637569216e+00,8.101322508001921108e+00,0.000000000000000000e+00
1.040000000000000785e-01,1.016424066967923423e+01,4.282376389014417306e+00,8.087928103011948977e+00,0.000000000000000000e+00
1.050000000000000794e-01,1.016853641355929838e+01,4.341289496501585354e+00,8.074504753130314683e+00,0.000000000000000000e+00
1.060000000000000803e-01,1.017289109444205408e+01,4.400307835399268619e+00,8.061051986319926144e+00,0.000000000000000000e+00
1.070000000000000812e-01,1.017730481755851812e+01,4.459431403971739094e+00,8.047569339019290169e+00,0.000000000000000000e+00
1.080000000000000820e-01,1.018177768813796114e+01,4.518660200449176045e+00,8.034056356111047847e+00,0.000000000000000000e+00
1.090000000000000829e-01,1.018630981140787739e+01,4.577994223029461018e+00,8.020512591206703235e+00,0.000000000000000000e+00
1.100000000000000838e-01,1.019090129259395283e+01,4.637433469879905346e+00,8.006937606637503535e+00,0.000000000000000000e+00
1.110000000000000847e-01,1.019555223692003487e+01,4.696977939138986535e+00,7.993330973080633228e+00,0.000000000000000000e+00
1.120000000000000856e-01,1.020026274960810220e+01,4.756627628918035811e+00,7.979692270209278959e+00,0.000000000000000000e+00
1.130000000000000865e-01,1.020503293587823990e+01,4.816382537302879463e+00,7.966021086054055012e+00,0.000000000000000000e+00
1.140000000000000874e-01,1.020986290094861282e+01,4.876242662355469548e+00,7.952317017521536080e+00,0.000000000000000000e+00
1.150000000000000883e-01,1.021475275003544247e+01,4.936208002115473725e+00,7.938579669956446594e+00,0.000000000000000000e+00
1.160000000000000892e-01,1.021970258835298573e+01,4.996278554601809141e+00,7.924808657459323058e+00,0.000000000000000000e+00
1.170000000000000900e-01,1.022471252111351525e+01,5.056454317814173649e+00,7.911003603017972452e+00,0.000000000000000000e+00
1.180000000000000909e-01,1.022978265352729643e+01,5.116735289734534398e+00,7.897164138082435336e+00,0.000000000000000000e+00
1.190000000000000918e-01,1.023491309080257672e+01,5.177121468328576448e+00,7.883289902853963582e+00,0.000000000000000000e+00
1.200000000000000927e-01,1.024010393814556252e+01,5.237612851547125636e+00,7.869380546310739355e+00,0.000000000000000000e+00
1.210000000000000936e-01,1.024535530076041034e+01,5.298209437327536797e+00,7.855435725870054675e+00,0.000000000000000000e+00
1.220000000000000945e-01,1.025066728384921078e+01,5.358911223595049123e+00,7.841455107730865848e+00,0.000000000000000000e+00
1.230000000000000954e-01,1.025603999261197607e+01,5.419718208264118431e+00,7.827438366710992135e+00,0.000000000000000000e+00
1.240000000000000963e-01,1.026147353224663306e+01,5.480630389239693478e+00,7.813385186116476255e+00,0.000000000000000000e+00
1.250000000000000833e-01,1.026696800794900888e+01,5.541647764418495825e+00,7.799295258007258091e+00,0.000000000000000000e+00
1.260000000000000842e-01,1.027252352491282750e+01,5.602770331690246408e+00,7.785168283030495573e+00,0.000000000000000000e+00
1.270000000000000850e-01,1.027814018832970255e+01,5.663998088938867248e+00,7.771003970425683249e+00,0.000000000000000000e+00
1.280000000000000859e-01,1.028381810338912850e+01,5.725331034043648515e+00,7.756802037547473105e+00,0.000000000000000000e+00
1.290000000000000868e-01,1.028955737527847702e+01,5.786769164880412042e+00,7.742562210752911511e+00,0.000000000000000000e+00
1.300000000000000877e-01,1.029535810918299887e+01,5.848312479322568258e+00,7.728284224937915781e+00,0.000000000000000000e+00
1.310000000000000886e-01,1.030122041028581670e+01,5.909960975242229075e+00,7.713967823109470601e+00,0.000000000000000000e+00
1.320000000000000895e-01,1.030714438376792330e+01,5.971714650511276368e+00,7.699612756942477709e+00,0.000000000000000000e+00
1.330000000000000904e-01,1.031313013480818519e+01,6.033573503002362948e+00,7.685218786283358305e+00,0.000000000000000000e+00
1.340000000000000913e-01,1.031917776858334079e+01,6.095537530589929531e+00,7.670785679060185380e+00,0.000000000000000000e+00
1.350000000000000921e-01,1.032528738899883614e+01,6.157555960063287870e+00,7.656313293855947499e+00,0.000000000000000000e+00
1.360000000000000930e-01,1.033145902866655419e+01,6.219578013918632742e+00,7.641801534396568840e+00,0.000000000000000000e+00
1.370000000000000939e-01,1.033769269120892886e+01,6.281603683564487284e+00,7.627249179367894705e+00,0.000000000000000000e+00
1.380000000000000948e-01,1.034398837887535905e+01,6.343628504772619969e+00,7.612658378395988024e+00,0.000000000000000000e+00
1.390000000000000957e-01,1.035034609268264560e+01,6.405657921322496229e+00,7.598028509845562439e+00,0.000000000000000000e+00
1.400000000000000966e-01,1.035676583671719797e+01,6.467690555832646737e+00,7.583359681105245720e+00,0.000000000000000000e+00
1.410000000000000975e-01,1.036324761419504448e+01,6.529726752963129321e+00,7.568651824960350716e+00,0.000000000000000000e+00
1.420000000000000984e-01,1.036979142867687109e+01,6.591766504192806408e+00,7.553904883315763819e+00,0.000000000000000000e+00
1.430000000000000993e-01,1.037639728371485326e+01,6.653809801050444506e+00,7.539118806852938448e+00,0.000000000000000000e+00
1.440000000000001001e-01,1.038306518285271096e+01,6.715856635114946904e+00,7.524293555025032276e+00,0.000000000000000000e+00
1.450000000000001010e-01,1.038979512962574958e+01,6.777906998015573947e+00,7.509429095655132613e+00,0.000000000000000000e+00
1.460000000000001019e-01,1.039658712756091674e+01,6.839960881432117112e+00,7.494525404753198394e+00,0.000000000000000000e+00
1.470000000000001028e-01,1.040344118017685382e+01,6.902018277095029575e+00,7.479582467146073554e+00,0.000000000000000000e+00
1.480000000000001037e-01,1.041035729098394036e+01,6.964079176785561209e+00,7.464600275834417431e+00,0.000000000000000000e+00
1.490000000000001046e-01,1.041733546348435091e+01,7.026143572335881160e+00,7.449578831706006987e+00,0.000000000000000000e+00
1.500000000000001055e-01,1.042437570117210477e+01,7.088211455629190638e+00,7.434532062919823936e+00,0.000000000000000000e+00
1.510000000000001064e-01,1.043147800753306242e+01,7.150282817410480440e+00,7.419473507065037055e+00,0.000000000000000000e+00
1.520000000000001072e-01,1.043864238604337480e+01,7.212357648665708609e+00,7.404402636390678971e+00,0.000000000000000000e+00
1.530000000000001081e-01,1.044586884017080131e+01,7.274435941858677701e+00,7.389318935200275718e+00,0.000000000000000000e+00
1.540000000000001090e-01,1.045315737337560158e+01,7.336517689615345006e+00,7.374221899425413618e+00,0.000000000000000000e+00
1.550000000000001099e-01,1.046050798911070068e+01,7.398602884725731244e+00,7.359111037267805244e+00,0.000000000000000000e+00
1.560000000000001108e-01,1.046792069082184895e+01,7.460691520145901201e+00,7.343985868527530769e+00,0.000000000000000000e+00
1.570000000000001117e-01,1.047539548194779258e+01,7.522783588999788051e+00,7.328845924557808367e+00,0.000000000000000000e+00
1.580000000000001126e-01,1.048293236592043876e+01,7.584879084580886222e+00,7.313690748359639393e+00,0.000000000000000000e+00
