Time (s),Altitude (m),Velocity (m/s),Angular Velocity (rad/s),Fin Cant Angle (deg)
0.000000000000000000e+00,1.000000000000000000e+01,0.000000000000000000e+00,9.876011110596564890e+00,0.000000000000000000e+00
1.000000000000000021e-03,9.999997841341917493e+00,-1.580000283730089794e-03,9.753577465371039423e+00,0.000000000000000000e+00
2.000000000000000042e-03,1.000000231464948364e+01,1.326408810145897343e-02,9.632679140128312056e+00,0.000000000000000000e+00
3.000000000000000062e-03,1.000002984462028088e+01,4.453348296661020084e-02,9.513295974145799860e+00,0.000000000000000000e+00
4.000000000000000083e-03,1.000009685703112972e+01,9.222912496412631611e-02,9.395407248364994857e+00,0.000000000000000000e+00
5.000000000000000104e-03,1.000021977859939248e+01,1.563519544949036610e-01,9.278991388426303999e+00,0.000000000000000000e+00
6.000000000000000125e-03,1.000041503698261813e+01,2.369029114896548105e-01,9.164025021186855469e+00,0.000000000000000000e+00
7.000000000000000146e-03,1.000069793126413131e+01,3.304944106458811981e-01,9.050484299745086503e+00,0.000000000000000000e+00
8.000000000000000167e-03,1.000107924354614575e+01,4.337391364677339878e-01,8.938345593909549081e+00,0.000000000000000000e+00
9.000000000000001055e-03,1.000156862772705502e+01,5.466384321990702677e-01,8.827584515811809140e+00,0.000000000000000000e+00
1.000000000000000194e-02,1.000217573904779833e+01,6.691936396188087333e-01,8.718175875732789848e+00,0.000000000000000000e+00
1.100000000000000283e-02,1.000291023409017477e+01,8.014060985856217290e-01,8.610093785336527361e+00,0.000000000000000000e+00
1.200000000000000372e-02,1.000378042569640691e+01,9.392418694852033845e-01,8.503313838188253371e+00,0.000000000000000000e+00
1.300000000000000461e-02,1.000478924739368303e+01,1.078666333928829379e+00,8.397812686558804529e+00,0.000000000000000000e+00
1.400000000000000550e-02,1.000593828803503271e+01,1.219679810607870118e+00,8.293567308089485834e+00,0.000000000000000000e+00
1.500000000000000638e-02,1.000722913679131842e+01,1.362282616478786901e+00,8.190555005833273228e+00,0.000000000000000000e+00
1.600000000000000727e-02,1.000866338314946269e+01,1.506475066696199017e+00,8.088753409783201676e+00,0.000000000000000000e+00
1.700000000000000816e-02,1.001024261691061490e+01,1.652257474549210681e+00,7.988140477044721521e+00,0.000000000000000000e+00
1.800000000000000905e-02,1.001196842818825239e+01,1.799630151398417199e+00,7.888694494229101295e+00,0.000000000000000000e+00
1.900000000000000994e-02,1.001384240740622644e+01,1.948593406612940671e+00,7.790394078081205542e+00,0.000000000000000000e+00
2.000000000000001082e-02,1.001586614529673369e+01,2.099147547511047485e+00,7.693218175902283740e+00,0.000000000000000000e+00
2.100000000000001171e-02,1.001804123289823956e+01,2.251292879298973482e+00,7.597146068149609910e+00,0.000000000000000000e+00
2.200000000000001260e-02,1.002036926155333596e+01,2.405029705012601049e+00,7.502157588813896716e+00,0.000000000000000000e+00
2.300000000000001349e-02,1.002285151297038723e+01,2.559428504060996090e+00,7.408234053767629668e+00,0.000000000000000000e+00
2.400000000000001438e-02,1.002548802930933292e+01,2.713559546690533786e+00,7.315357615596025376e+00,0.000000000000000000e+00
2.500000000000001527e-02,1.002827854280722519e+01,2.867422819647589272e+00,7.223510949415426374e+00,0.000000000000000000e+00
2.600000000000001615e-02,1.003122278568728731e+01,3.021018308540028396e+00,7.132677239560604399e+00,0.000000000000000000e+00
2.700000000000001704e-02,1.003432049015780336e+01,3.174345997887849435e+00,7.042840164363691535e+00,0.000000000000000000e+00
2.800000000000001793e-02,1.003757138841105245e+01,3.327405871170555862e+00,6.953983885642568197e+00,0.000000000000000000e+00
2.900000000000001882e-02,1.004097521262229442e+01,3.480197910871962286e+00,6.866093033409533142e+00,0.000000000000000000e+00
3.000000000000001971e-02,1.004453169494879106e+01,3.632722098524783672e+00,6.779152693237788796e+00,0.000000000000000000e+00
3.100000000000002059e-02,1.004824056752887884e+01,3.784978414751211329e+00,6.693148395997648770e+00,0.000000000000000000e+00
3.200000000000002148e-02,1.005210156248107722e+01,3.936966839300632515e+00,6.608066100808691168e+00,0.000000000000000000e+00
3.300000000000002237e-02,1.005611441190323418e+01,4.088687351085571464e+00,6.523892177365286926e+00,0.000000000000000000e+00
3.400000000000002326e-02,1.006027884785355120e+01,4.240139872432273194e+00,6.440613342959933263e+00,0.000000000000000000e+00
3.500000000000002415e-02,1.006459460228581371e+01,4.391324307391724524e+00,6.358216688841278774e+00,0.000000000000000000e+00
3.600000000000002504e-02,1.006906140709162401e+01,4.542240612130548527e+00,6.276689698192707390e+00,0.000000000000000000e+00
3.700000000000002592e-02,1.007367899411819678e+01,4.692888741146465037e+00,6.196020223970982066e+00,0.000000000000000000e+00
3.800000000000002681e-02,1.007844709516612447e+01,4.843268646695475965e+00,6.116196489270524062e+00,0.000000000000000000e+00
3.900000000000002770e-02,1.008336544198712659e+01,4.993380278771483383e+00,6.037207063600331658e+00,0.000000000000000000e+00
4.000000000000002859e-02,1.008843376628177602e+01,5.143223585084069072e+00,5.959040864848637042e+00,0.000000000000000000e+00
4.100000000000002948e-02,1.009365179969720394e+01,5.292798511034386699e+00,5.881687138885465238e+00,0.000000000000000000e+00
4.200000000000003036e-02,1.009901927382477638e+01,5.442104999687279232e+00,5.805135461785172701e+00,0.000000000000000000e+00
4.300000000000003125e-02,1.010453592019774405e+01,5.591142991741190116e+00,5.729375713326374964e+00,0.000000000000000000e+00
4.400000000000003214e-02,1.011020147028885852e+01,5.739912425496950910e+00,5.654398078561561292e+00,0.000000000000000000e+00
4.500000000000003303e-02,1.011601565550796167e+01,5.888413236824283636e+00,5.580193040396046911e+00,0.000000000000000000e+00
4.600000000000003392e-02,1.012197820719953079e+01,6.036645359124404031e+00,5.506751269081266997e+00,0.000000000000000000e+00
4.700000000000003481e-02,1.012808892405505823e+01,6.184810970487913728e+00,5.434063297624022404e+00,0.000000000000000000e+00
4.800000000000003569e-02,1.013434787437601337e+01,6.333112288235073883e+00,5.362119822000061653e+00,0.000000000000000000e+00
4.900000000000003658e-02,1.014075519386297231e+01,6.481549300172906314e+00,5.290911774930935785e+00,0.000000000000000000e+00
5.000000000000003747e-02,1.014731101820257919e+01,6.630121990622451555e+00,5.220588975689033795e+00,0.000000000000000000e+00
5.100000000000003836e-02,1.015401548290330069e+01,6.778829855036778262e+00,5.151291401761285194e+00,0.000000000000000000e+00
5.200000000000003925e-02,1.016086872278451381e+01,6.927672334767190243e+00,5.082995910177388943e+00,0.000000000000000000e+00
5.300000000000004013e-02,1.016787087241000975e+01,7.076649325755458797e+00,5.015679951886988341e+00,0.000000000000000000e+00
5.400000000000004102e-02,1.017502206623648853e+01,7.225760717870399752e+00,4.949321572789171064e+00,0.000000000000000000e+00
5.500000000000004191e-02,1.018232243860748376e+01,7.375006394916898245e+00,4.883899394163263352e+00,0.000000000000000000e+00
5.600000000000004280e-02,1.018977212374730357e+01,7.524386234641919913e+00,4.819392599960576895e+00,0.000000000000000000e+00
5.700000000000004369e-02,1.019737125575497849e+01,7.673900108739070802e+00,4.755780924626863637e+00,0.000000000000000000e+00
5.800000000000004458e-02,1.020511996859820769e+01,7.823547882853810975e+00,4.693044643711210995e+00,0.000000000000000000e+00
5.900000000000004546e-02,1.021301839610731221e+01,7.973329416586634188e+00,4.631164554519779486e+00,0.000000000000000000e+00
6.000000000000004635e-02,1.022106667196919361e+01,8.123244563493736692e+00,4.570121975657567504e+00,0.000000000000000000e+00
6.100000000000004724e-02,1.022926492972128365e+01,8.273293171086677944e+00,4.509898728002345258e+00,0.000000000000000000e+00
6.200000000000004813e-02,1.023761330274550474e+01,8.423475080830014505e+00,4.450477128294645368e+00,0.000000000000000000e+00
6.300000000000004208e-02,1.024611192426221962e+01,8.573790128136657529e+00,4.391839965194760609e+00,0.000000000000000000e+00
6.400000000000004297e-02,1.025476092732417221e+01,8.724238142361366855e+00,4.333970504912191046e+00,0.000000000000000000e+00
6.500000000000004385e-02,1.026356044481043206e+01,8.874818946792172980e+00,4.276852478989437323e+00,0.000000000000000000e+00
6.600000000000004474e-02,1.027251060942031735e+01,9.025532358639631880e+00,4.220470057068540726e+00,0.000000000000000000e+00
6.700000000000004563e-02,1.028161155366731272e+01,9.176378189023283838e+00,4.164807855001822823e+00,0.000000000000000000e+00
6.800000000000004652e-02,1.029086340987296921e+01,9.327356242955440635e+00,4.109850922641189896e+00,0.000000000000000000e+00
6.900000000000004741e-02,1.030026631016079186e+01,9.478466319322849998e+00,4.055584729799327270e+00,0.000000000000000000e+00
7.000000000000004829e-02,1.030982038645009702e+01,9.629708210864734497e+00,4.001995154672611577e+00,0.000000000000000000e+00
7.100000000000004918e-02,1.031952577044985908e+01,9.781081704148448352e+00,3.949068487787461557e+00,0.000000000000000000e+00
7.200000000000005007e-02,1.032938259365252165e+01,9.932586579541659688e+00,3.896791395721375562e+00,0.000000000000000000e+00
7.300000000000005096e-02,1.033939098732778383e+01,1.008422261118108132e+01,3.845150945885892568e+00,0.000000000000000000e+00
7.400000000000005185e-02,1.034955108251634925e+01,1.023598956693804674e+01,3.794134569912366306e+00,0.000000000000000000e+00
7.500000000000005274e-02,1.035986301002364840e+01,1.038788720838024204e+01,3.743730076010992391e+00,0.000000000000000000e+00
7.600000000000005362e-02,1.037032690041350769e+01,1.053991529072999178e+01,3.693925633725336777e+00,0.000000000000000000e+00
7.700000000000005451e-02,1.038094288400178300e+01,1.069207356281823351e+01,3.644709737514689074e+00,0.000000000000000000e+00
7.800000000000005540e-02,1.039171109084994882e+01,1.084436176703458621e+01,3.596071251214642661e+00,0.000000000000000000e+00
7.900000000000005629e-02,1.040263165075862339e+01,1.099677963927340762e+01,3.547999366758567863e+00,0.000000000000000000e+00
8.000000000000005718e-02,1.041370469326104775e+01,1.114932690887533795e+01,3.500483612860022298e+00,0.000000000000000000e+00
8.100000000000005806e-02,1.042493034761650250e+01,1.130200329856416097e+01,3.453513848490538773e+00,0.000000000000000000e+00
8.200000000000005895e-02,1.043630871282515038e+01,1.145471858823520783e+01,3.407080490606191781e+00,0.000000000000000000e+00
8.300000000000005984e-02,1.044783976768074751e+01,1.160738254096345301e+01,3.361174286420797852e+00,0.000000000000000000e+00
8.400000000000006073e-02,1.045952346069086580e+01,1.175999484478341905e+01,3.315786265798781329e+00,0.000000000000000000e+00
8.500000000000006162e-02,1.047135974004812020e+01,1.191255518174292760e+01,3.270907765287183189e+00,0.000000000000000000e+00
8.600000000000006251e-02,1.048334855362415752e+01,1.206506322784064977e+01,3.226530380279819088e+00,0.000000000000000000e+00
8.700000000000006339e-02,1.049548984896357062e+01,1.221751865295910910e+01,3.182645955592421583e+00,0.000000000000000000e+00
8.800000000000006428e-02,1.050778357327774515e+01,1.236992112079291140e+01,3.139246632780402724e+00,0.000000000000000000e+00
8.900000000000006517e-02,1.052022967343863691e+01,1.252227028877104686e+01,3.096324758602539085e+00,0.000000000000000000e+00
9.000000000000006606e-02,1.053282809597246406e+01,1.267456580797563426e+01,3.053872953311927763e+00,0.000000000000000000e+00
9.100000000000006695e-02,1.054557878705331575e+01,1.282680732305435889e+01,3.011884052120354038e+00,0.000000000000000000e+00
9.200000000000006783e-02,1.055848169249667556e+01,1.297899447212785518e+01,2.970351131547316115e+00,0.000000000000000000e+00
9.300000000000006872e-02,1.057153675775284185e+01,1.313112688669177786e+01,2.929267480646344790e+00,0.000000000000000000e+00
9.400000000000006961e-02,1.058474392790025398e+01,1.328320419151459930e+01,2.888626616200115294e+00,0.000000000000000000e+00
9.500000000000007050e-02,1.059810314763871197e+01,1.343522600452836180e+01,2.848422245737725511e+00,0.000000000000000000e+00
9.600000000000007139e-02,1.061161436128248070e+01,1.358719193671353054e+01,2.808648284464797307e+00,0.000000000000000000e+00
9.700000000000007228e-02,1.062527751275328036e+01,1.373910159197797221e+01,2.769298834015859967e+00,0.000000000000000000e+00
9.800000000000007316e-02,1.063909254557315087e+01,1.389095456703120490e+01,2.730368218697218907e+00,0.000000000000000000e+00
9.900000000000007405e-02,1.065305940285718656e+01,1.404275045125240418e+01,2.691850904289796009e+00,0.000000000000000000e+00
1.000000000000000749e-01,1.066717802730613940e+01,1.419448882655167488e+01,2.653670821675864655e+00,0.000000000000000000e+00
1.010000000000000758e-01,1.068144836178411694e+01,1.434617102703219871e+01,2.615757417431470611e+00,0.000000000000000000e+00
1.020000000000000767e-01,1.069587035109926454e+01,1.449779844420957176e+01,2.578113531150292737e+00,0.000000000000000000e+00
1.030000000000000776e-01,1.071044394029660651e+01,1.464937073309575943e+01,2.540741848059954400e+00,0.000000000000000000e+00
1.040000000000000785e-01,1.072516907407119113e+01,1.480088753866871620e+01,2.503644993286391784e+00,0.000000000000000000e+00
1.050000000000000794e-01,1.074004569675788900e+01,1.495234849553949097e+01,2.466825532255358944e+00,-6.776556776556776462e+00
1.060000000000000803e-01,1.075507375232085572e+01,1.510375322760851091e+01,2.430777706919226677e+00,-8.527472527472527375e+00
1.070000000000000812e-01,1.077025318408295718e+01,1.525510082757397079e+01,2.395135467974812915e+00,-1.024908424908424998e+01
1.080000000000000820e-01,1.078558393501739410e+01,1.540639150444183159e+01,2.359923292712317267e+00,-1.194871794871794890e+01
1.090000000000000829e-01,1.080106594819640797e+01,1.555762524672145730e+01,2.325162885390879008e+00,-1.362637362637362770e+01
1.100000000000000838e-01,1.081669916674545284e+01,1.570880217195611728e+01,2.290873134227732866e+00,-1.499999999999999822e+01
1.110000000000000847e-01,1.083248353409393694e+01,1.585992277048041998e+01,2.257030653141291143e+00,-1.499999999999999822e+01
1.120000000000000856e-01,1.084841899405727084e+01,1.601098732408536307e+01,2.223449634783620787e+00,-1.499999999999999822e+01
1.130000000000000865e-01,1.086450548899964375e+01,1.616199264958551396e+01,2.190131979678514806e+00,-1.499999999999999822e+01
1.140000000000000874e-01,1.088074295945364689e+01,1.631293826596126806e+01,2.157079466631728337e+00,-1.499999999999999822e+01
1.150000000000000883e-01,1.089713134546353679e+01,1.646382367748481457e+01,2.124293866481609339e+00,-1.499999999999999822e+01
1.160000000000000892e-01,1.091367058657029432e+01,1.661464837325567601e+01,2.091776776172792562e+00,-1.499999999999999822e+01
1.170000000000000900e-01,1.093036062179621659e+01,1.676541182672438168e+01,2.059529755168921561e+00,-1.499999999999999822e+01
1.180000000000000909e-01,1.094720138962902389e+01,1.691611349520372443e+01,2.027554174983040358e+00,-1.499999999999999822e+01
1.190000000000000918e-01,1.096419282800547279e+01,1.706675281937083710e+01,1.995851437358993508e+00,-1.499999999999999822e+01
1.200000000000000927e-01,1.098133487429446653e+01,1.721732922275617383e+01,1.964422785942245397e+00,-1.499999999999999822e+01
1.210000000000000936e-01,1.099862746527964674e+01,1.736784211121557320e+01,1.933269360233890843e+00,-1.499999999999999822e+01
1.220000000000000945e-01,1.101607053714145046e+01,1.751829087239176630e+01,1.902392193444403468e+00,-1.499999999999999822e+01
1.230000000000000954e-01,1.103366402543861824e+01,1.766867487516218205e+01,1.871792323575284467e+00,-1.499999999999999822e+01
1.240000000000000963e-01,1.105140786508915340e+01,1.781899346907218273e+01,1.841470543641693602e+00,-1.499999999999999822e+01
1.250000000000000833e-01,1.106930199035069506e+01,1.796924598375591131e+01,1.811427691873701784e+00,-1.499999999999999822e+01
1.260000000000000842e-01,1.108734633179249052e+01,1.811942270500169272e+01,1.781664453167520978e+00,-1.499999999999999822e+01
1.270000000000000850e-01,1.110554080725222192e+01,1.826951389974608730e+01,1.752181438264531321e+00,-1.499999999999999822e+01
1.280000000000000859e-01,1.112388533084014774e+01,1.841951883788252076e+01,1.718368328633041342e+00,-1.499999999999999822e+01
1.290000000000000868e-01,1.114237981592543747e+01,1.856943676723399506e+01,1.668346300790887859e+00,-1.499999999999999822e+01
1.300000000000000877e-01,1.116102417511378242e+01,1.871926691291579203e+01,1.601253191793927000e+00,-1.499999999999999822e+01
1.310000000000000886e-01,1.117981832022437061e+01,1.886900847670157333e+01,1.517027494431506529e+00,-1.499999999999999822e+01
1.320000000000000895e-01,1.119876216226622923e+01,1.901866063638419746e+01,1.415608422010510070e+00,-1.499999999999999822e+01
1.330000000000000904e-01,1.121785561141391518e+01,1.916822254512697654e+01,1.296935689304671291e+00,-1.499999999999999822e+01
1.340000000000000913e-01,1.123709857698256087e+01,1.931769333079980555e+01,1.160949525317785724e+00,-1.499999999999999822e+01
1.350000000000000921e-01,1.125649096740224131e+01,1.946707209531297877e+01,1.007590615506968046e+00,-1.499999999999999822e+01
1.360000000000000930e-01,1.127603269019168053e+01,1.961635791393667816e+01,8.367998309704933746e-01,-1.499999999999999822e+01
1.370000000000000939e-01,1.129572365193126693e+01,1.976554983461079118e+01,6.485184788270528244e-01,-1.499999999999999822e+01
1.380000000000000948e-01,1.131556375823537230e+01,1.991464687724888805e+01,4.426878792588744282e-01,-1.499999999999999822e+01
1.390000000000000957e-01,1.133555291372397456e+01,2.006364803303160826e+01,2.192493748717080360e-01,-1.499999999999999822e+01
1.400000000000000966e-01,1.135569102199356983e+01,2.021255226369397917e+01,-2.190633101478092759e-02,-1.499999999999999822e+01
1.410000000000000975e-01,1.137597798558737061e+01,2.036135850081801024e+01,-2.807859626177333645e-01,-1.499999999999999822e+01
1.420000000000000984e-01,1.139641370596479675e+01,2.051006564511569152e+01,-5.573990420111817334e-01,-1.499999999999999822e+01
1.430000000000000993e-01,1.141699808347024714e+01,2.065867256571088717e+01,-8.518559433398148473e-01,-1.499999999999999822e+01
1.440000000000001001e-01,1.143773101730115371e+01,2.080717809943179830e+01,-1.164216660143626125e+00,-1.499999999999999822e+01
1.450000000000001010e-01,1.145861240547533377e+01,2.095558105010436023e+01,-1.494541525018997508e+00,-1.499999999999999822e+01
1.460000000000001019e-01,1.147964214479763889e+01,2.110388018785203457e+01,-1.842891604902905378e+00,-1.499999999999999822e+01
1.470000000000001028e-01,1.150082013082590926e+01,2.125207424841498494e+01,-2.209328681890659229e+00,-1.499999999999999822e+01
1.480000000000001037e-01,1.152214625783625124e+01,2.140016193248364829e+01,-2.593915265658195857e+00,-1.499999999999999822e+01
1.490000000000001046e-01,1.154362041878766654e+01,2.154814190504825078e+01,-2.996714862955393688e+00,-1.499999999999999822e+01
1.500000000000001055e-01,1.156524250528604547e+01,2.169601279479351064e+01,-3.420312964984114412e+00,-1.499999999999999822e+01
1.510000000000001064e-01,1.158701240714495917e+01,2.184377198382465579e+01,-3.867239637356992610e+00,-1.499999999999999822e+01
1.520000000000001072e-01,1.160893001112563461e+01,2.199141678677312584e+01,-4.337476360952692289e+00,-1.499999999999999822e+01
1.530000000000001081e-01,1.163099520208128368e+01,2.213894567612411990e+01,-4.831005983253094271e+00,-1.377289377289377015e+01
1.540000000000001090e-01,1.165320786331924019e+01,2.228635708758969258e+01,-5.296080930882572702e+00,-8.871794871794872250e+00
1.550000000000001099e-01,1.167556787537510843e+01,2.243364704182388891e+01,-5.569507814342402163e+00,-4.168498168498168788e+00
1.560000000000001108e-01,1.169807511540676437e+01,2.258081276253108172e+01,-5.644994531881287081e+00,1.904761904761904934e-01
1.570000000000001117e-01,1.172072946005234684e+01,2.272785598685726427e+01,-5.524658036837078789e+00,4.073260073260073000e+00
