Time (s),Altitude (m),Velocity (m/s),Angular Velocity (rad/s),Fin Cant Angle (deg)
0.000000000000000000e+00,1.000000000000000000e+01,0.000000000000000000e+00,9.847874476843271552e+00,0.000000000000000000e+00
1.000000000000000021e-03,9.999997841345287242e+00,-1.579986525952551931e-03,9.698388308944409175e+00,0.000000000000000000e+00
2.000000000000000042e-03,1.000000231470560408e+01,1.326420129942830310e-02,9.551491040298873969e+00,0.000000000000000000e+00
3.000000000000000062e-03,1.000002984490710567e+01,4.453386664668410044e-02,9.407132846623694533e+00,0.000000000000000000e+00
4.000000000000000083e-03,1.000009685793926906e+01,9.223003296616602564e-02,9.265264254147416167e+00,0.000000000000000000e+00
5.000000000000000104e-03,1.000021978081360530e+01,1.563537208300346815e-01,9.125835880565665192e+00,0.000000000000000000e+00
6.000000000000000125e-03,1.000041504156062722e+01,2.369059476087148619e-01,8.988797344741998430e+00,0.000000000000000000e+00
7.000000000000000146e-03,1.000069793971269050e+01,3.304992027383824582e-01,8.854098670386887804e+00,0.000000000000000000e+00
8.000000000000000167e-03,1.000107925789444607e+01,4.337462427048769387e-01,8.721691119082752408e+00,0.000000000000000000e+00
9.000000000000001055e-03,1.000156865059717681e+01,5.466484796867674412e-01,8.591526057292263374e+00,0.000000000000000000e+00
1.000000000000000194e-02,1.000217577372209909e+01,6.692073212697824403e-01,8.463554903615811753e+00,0.000000000000000000e+00
1.100000000000000283e-02,1.000291028457545650e+01,8.014241698070984077e-01,8.337729079644550012e+00,0.000000000000000000e+00
1.200000000000000372e-02,1.000378049678509562e+01,9.392651460098790928e-01,8.214001900970897552e+00,0.000000000000000000e+00
1.300000000000000461e-02,1.000478934472326209e+01,1.078695689346085729e+00,8.092328322012781072e+00,0.000000000000000000e+00
1.400000000000000550e-02,1.000593841814370322e+01,1.219716172198102022e+00,7.972664192469451905e+00,0.000000000000000000e+00
1.500000000000000638e-02,1.000722930716998249e+01,1.362326961785354396e+00,7.854966240783885389e+00,0.000000000000000000e+00
1.600000000000000727e-02,1.000866360229022334e+01,1.506528419975085908e+00,7.739192057991827411e+00,0.000000000000000000e+00
1.700000000000000816e-02,1.001024289435165748e+01,1.652320903086614834e+00,7.625300082495177101e+00,0.000000000000000000e+00
1.800000000000000905e-02,1.001196877455498147e+01,1.799704761691901078e+00,7.513249585069454284e+00,0.000000000000000000e+00
1.900000000000000994e-02,1.001384283444850531e+01,1.948680340415631651e+00,7.403000654159253457e+00,0.000000000000000000e+00
2.000000000000001082e-02,1.001586666592210406e+01,2.099247977730901660e+00,7.294514182003814184e+00,0.000000000000000000e+00
2.100000000000001171e-02,1.001804186120096496e+01,2.251408005748626096e+00,7.187751849550745753e+00,0.000000000000000000e+00
2.200000000000001260e-02,1.002037001283911444e+01,2.405160750004692538e+00,7.082676284479541451e+00,0.000000000000000000e+00
2.300000000000001349e-02,1.002285240377792164e+01,2.559576711978027053e+00,6.979251812924220033e+00,0.000000000000000000e+00
2.400000000000001438e-02,1.002548907743227780e+01,2.713726181338516064e+00,6.877443937359181803e+00,0.000000000000000000e+00
2.500000000000001527e-02,1.002827976730937465e+01,2.867609156792432223e+00,6.777219053955255035e+00,0.000000000000000000e+00
2.600000000000001615e-02,1.003122420691239824e+01,3.021225631619195440e+00,6.678544417905189157e+00,0.000000000000000000e+00
2.700000000000001704e-02,1.003432212973509330e+01,3.174575593649599181e+00,6.581388135186248434e+00,0.000000000000000000e+00
2.800000000000001793e-02,1.003757326925630089e+01,3.327659025247332369e+00,6.485719131847647034e+00,0.000000000000000000e+00
2.900000000000001882e-02,1.004097735893448196e+01,3.480475903285822348e+00,6.391507133821572317e+00,0.000000000000000000e+00
3.000000000000001971e-02,1.004453413220221947e+01,3.633026199125509503e+00,6.298722645885354687e+00,0.000000000000000000e+00
3.100000000000002059e-02,1.004824332246069041e+01,3.785309878594959265e+00,6.207336935938139177e+00,0.000000000000000000e+00
3.200000000000002148e-02,1.005210466307412354e+01,3.937326901966145432e+00,6.117322002016878812e+00,0.000000000000000000e+00
3.300000000000002237e-02,1.005611788736423584e+01,4.089077223935065675e+00,6.028650571151385584e+00,0.000000000000000000e+00
3.400000000000002326e-02,1.006028272860463879e+01,4.240560793597908607e+00,5.941296068176997736e+00,0.000000000000000000e+00
3.500000000000002415e-02,1.006459892001523571e+01,4.391777554429713071e+00,5.855232604303054700e+00,0.000000000000000000e+00
3.600000000000002504e-02,1.006906619475658005e+01,4.542727444262688152e+00,5.770434949266075364e+00,0.000000000000000000e+00
3.700000000000002592e-02,1.007368428592423015e+01,4.693410395261367718e+00,5.686878525579460053e+00,0.000000000000000000e+00
3.800000000000002681e-02,1.007845292654306313e+01,4.843826333898292980e+00,5.604539384992302864e+00,0.000000000000000000e+00
3.900000000000002770e-02,1.008337184956157273e+01,4.993975180930288360e+00,5.523394193845480693e+00,0.000000000000000000e+00
4.000000000000002859e-02,1.008844078784614240e+01,5.143856851371711336e+00,5.443420215517187799e+00,0.000000000000000000e+00
4.100000000000002948e-02,1.009365947417528453e+01,5.293471254468417264e+00,5.364595302714727509e+00,0.000000000000000000e+00
4.200000000000003036e-02,1.009902764123386376e+01,5.442818293669128060e+00,5.286897862181021424e+00,0.000000000000000000e+00
4.300000000000003125e-02,1.010454502160728296e+01,5.591897866598539046e+00,5.210306862505807324e+00,0.000000000000000000e+00
4.400000000000003214e-02,1.011021134777564434e+01,5.740709865026468961e+00,5.134801808395002887e+00,0.000000000000000000e+00
4.500000000000003303e-02,1.011602635210788037e+01,5.889254174835873989e+00,5.060362730485268301e+00,0.000000000000000000e+00
4.600000000000003392e-02,1.012198976685584917e+01,6.037530675991158446e+00,4.986970089706304954e+00,0.000000000000000000e+00
4.700000000000003481e-02,1.012810139155857136e+01,6.185741475456659089e+00,4.914604504468981006e+00,0.000000000000000000e+00
4.800000000000003569e-02,1.013436129528621699e+01,6.334088712983797720e+00,4.843246979485646975e+00,0.000000000000000000e+00
4.900000000000003658e-02,1.014076961443707603e+01,6.482572307816212742e+00,4.772878973827873850e+00,0.000000000000000000e+00
5.000000000000003747e-02,1.014732648532502601e+01,6.631192171867299479e+00,4.703420061521837781e+00,0.000000000000000000e+00
5.100000000000003836e-02,1.015403204427658324e+01,6.779948524906341589e+00,4.634794407565960839e+00,0.000000000000000000e+00
5.200000000000003925e-02,1.016088642795263652e+01,6.928841611088190078e+00,4.566990887452623049e+00,0.000000000000000000e+00
5.300000000000004013e-02,1.016788977305596653e+01,7.077871368633529059e+00,4.499998650630320007e+00,0.000000000000000000e+00
5.400000000000004102e-02,1.017504221622438365e+01,7.227037729354091944e+00,4.433807097160761934e+00,0.000000000000000000e+00
5.500000000000004191e-02,1.018234389402423901e+01,7.376340618495451196e+00,4.368405868086957078e+00,0.000000000000000000e+00
5.600000000000004280e-02,1.018979494294378085e+01,7.525779954574937314e+00,4.303784828674123375e+00,0.000000000000000000e+00
5.700000000000004369e-02,1.019739549938633871e+01,7.675355649211094367e+00,4.239934102358216883e+00,0.000000000000000000e+00
5.800000000000004458e-02,1.020514569966333873e+01,7.825067606952543997e+00,4.176844009873140529e+00,0.000000000000000000e+00
5.900000000000004546e-02,1.021304567998714852e+01,7.974915725098149721e+00,4.114505101503076467e+00,0.000000000000000000e+00
6.000000000000004635e-02,1.022109557646373013e+01,8.124899893512997906e+00,4.052908150390321040e+00,0.000000000000000000e+00
6.100000000000004724e-02,1.022929552508511897e+01,8.275019994438135740e+00,3.992044127485605109e+00,0.000000000000000000e+00
6.200000000000004813e-02,1.023764566172169488e+01,8.425275902294130148e+00,3.931904193993437602e+00,0.000000000000000000e+00
6.300000000000004208e-02,1.024614612211426490e+01,8.575667483479763931e+00,3.872479721667906993e+00,0.000000000000000000e+00
6.400000000000004297e-02,1.025479704186593821e+01,8.726194596162363482e+00,3.813762278966753350e+00,0.000000000000000000e+00
6.500000000000004385e-02,1.026359855643378438e+01,8.876857090064007139e+00,3.755743589702649210e+00,0.000000000000000000e+00
6.600000000000004474e-02,1.027255080112028196e+01,9.027654806238855301e+00,3.698415578800954062e+00,0.000000000000000000e+00
6.700000000000004563e-02,1.028165391106453441e+01,9.178587576846615192e+00,3.641770333642560864e+00,0.000000000000000000e+00
6.800000000000004652e-02,1.029090802123326043e+01,9.329655224916560741e+00,3.585800114828936014e+00,0.000000000000000000e+00
6.900000000000004741e-02,1.030031326641154266e+01,9.480857564105695801e+00,3.530497324902027501e+00,0.000000000000000000e+00
7.000000000000004829e-02,1.030986978119332953e+01,9.632194398448907791e+00,3.475854559240567188e+00,0.000000000000000000e+00
7.100000000000004918e-02,1.031957769997168839e+01,9.783665522103088819e+00,3.421864552223413014e+00,0.000000000000000000e+00
7.200000000000005007e-02,1.032943715692879216e+01,9.935270719081813695e+00,3.368520175620191903e+00,0.000000000000000000e+00
7.300000000000005096e-02,1.033944828602564492e+01,1.008700976298318785e+01,3.315814443246506205e+00,0.000000000000000000e+00
7.400000000000005185e-02,1.034961122099152320e+01,1.023888241670931798e+01,3.263740508359895376e+00,0.000000000000000000e+00
7.500000000000005274e-02,1.035992609531313846e+01,1.039088843217803593e+01,3.212291670426335344e+00,0.000000000000000000e+00
7.600000000000005362e-02,1.037039304222350466e+01,1.054302755002575154e+01,3.161461364842514499e+00,0.000000000000000000e+00
7.700000000000005451e-02,1.038101219469050385e+01,1.069529949930189794e+01,3.111243120140278595e+00,0.000000000000000000e+00
7.800000000000005540e-02,1.039178368540514263e+01,1.084770399715405631e+01,3.061630581663287387e+00,0.000000000000000000e+00
7.900000000000005629e-02,1.040270764676949078e+01,1.100024074850461986e+01,3.012617561033085867e+00,0.000000000000000000e+00
8.000000000000005718e-02,1.041378421088429107e+01,1.115290944571849785e+01,2.964197943814369740e+00,0.000000000000000000e+00
8.100000000000005806e-02,1.042501350953622818e+01,1.130570976826039775e+01,2.916365739808555624e+00,0.000000000000000000e+00
8.200000000000005895e-02,1.043639564422421628e+01,1.145855150021648861e+01,2.869115244489587990e+00,0.000000000000000000e+00
8.300000000000005984e-02,1.044793059626242737e+01,1.161134440892965358e+01,2.822440900555016619e+00,0.000000000000000000e+00
8.400000000000006073e-02,1.045961831664621045e+01,1.176408812948552196e+01,2.776337190502962127e+00,0.000000000000000000e+00
8.500000000000006162e-02,1.047145875599964349e+01,1.191678228420248686e+01,2.730798717940692288e+00,0.000000000000000000e+00
8.600000000000006251e-02,1.048345186456260514e+01,1.206942648229885862e+01,2.685820121455390286e+00,0.000000000000000000e+00
8.700000000000006339e-02,1.049559759217749466e+01,1.222202031954986090e+01,2.641396184817470072e+00,0.000000000000000000e+00
8.800000000000006428e-02,1.050789588827562326e+01,1.237456337793734562e+01,2.597521738689469561e+00,0.000000000000000000e+00
8.900000000000006517e-02,1.052034670186323595e+01,1.252705522528857784e+01,2.554191642577275712e+00,0.000000000000000000e+00
9.000000000000006606e-02,1.053294998150717454e+01,1.267949541490760446e+01,2.511400867609495435e+00,0.000000000000000000e+00
9.100000000000006695e-02,1.054570567532016589e+01,1.283188348519653843e+01,2.469144388391088185e+00,0.000000000000000000e+00
9.200000000000006783e-02,1.055861373094572642e+01,1.298421895926758651e+01,2.427417334123493919e+00,0.000000000000000000e+00
9.300000000000006872e-02,1.057167409554267401e+01,1.313650134454475094e+01,2.386214782729989103e+00,0.000000000000000000e+00
9.400000000000006961e-02,1.058488671576923856e+01,1.328873013235476108e+01,2.345531961505888496e+00,0.000000000000000000e+00
9.500000000000007050e-02,1.059825153776675144e+01,1.344090479751111999e+01,2.305364058327093346e+00,0.000000000000000000e+00
9.600000000000007139e-02,1.061176850714292641e+01,1.359302479788664186e+01,2.265706385541224055e+00,0.000000000000000000e+00
9.700000000000007228e-02,1.062543756895469649e+01,1.374508957397697806e+01,2.226554279671375092e+00,0.000000000000000000e+00
9.800000000000007316e-02,1.063925866769061379e+01,1.389709854844924841e+01,2.187903103166511265e+00,0.000000000000000000e+00
9.900000000000007405e-02,1.065323174725279642e+01,1.404905112568751235e+01,2.149748215219344338e+00,0.000000000000000000e+00
1.000000000000000749e-01,1.066735675093840818e+01,1.420094669132031839e+01,2.112058613784761008e+00,0.000000000000000000e+00
1.010000000000000758e-01,1.068163362186296439e+01,1.435278594300151589e+01,2.074805286800764481e+00,0.000000000000000000e+00
1.020000000000000767e-01,1.069606230430268390e+01,1.450456962861105126e+01,2.037986829813367873e+00,0.000000000000000000e+00
1.030000000000000776e-01,1.071064274240916170e+01,1.465629718022876204e+01,2.001601638107663561e+00,0.000000000000000000e+00
1.040000000000000785e-01,1.072537487975619896e+01,1.480796801007576491e+01,1.965648106709486198e+00,0.000000000000000000e+00
1.050000000000000794e-01,1.074025865931962898e+01,1.495958150989542190e+01,1.930124549651220933e+00,-5.304029304029304726e+00
1.060000000000000803e-01,1.075529402345652841e+01,1.511113705032482812e+01,1.895411067150512441e+00,-6.652014652014651475e+00
1.070000000000000812e-01,1.077048091378384420e+01,1.526263378058162701e+01,1.861188917073208327e+00,-7.978021978021978988e+00
1.080000000000000820e-01,1.078581927125450335e+01,1.541407122280460129e+01,1.827467919596653001e+00,-9.282051282051281049e+00
1.090000000000000829e-01,1.080130903629363104e+01,1.556544879930653202e+01,1.794256548575472898e+00,-1.056410256410256387e+01
1.100000000000000838e-01,1.081695014877742622e+01,1.571676598969841621e+01,1.761560778137357230e+00,-1.181684981684981928e+01
1.110000000000000847e-01,1.083274254806526748e+01,1.586802228051528374e+01,1.729384051280176804e+00,-1.305494505494505653e+01
1.120000000000000856e-01,1.084868617305242111e+01,1.601921725691612508e+01,1.697729602111025082e+00,-1.426373626373626280e+01
1.130000000000000865e-01,1.086478096228396417e+01,1.617035063321399591e+01,1.666597665896278668e+00,-1.499999999999999822e+01
1.140000000000000874e-01,1.088102685408295756e+01,1.632142225085995335e+01,1.635931616659165089e+00,-1.499999999999999822e+01
1.150000000000000883e-01,1.089742378607805584e+01,1.647243087953329166e+01,1.605637682711009262e+00,-1.499999999999999822e+01
1.160000000000000892e-01,1.091397169397304090e+01,1.662337389985083291e+01,1.575713891243617715e+00,-1.499999999999999822e+01
1.170000000000000900e-01,1.093067051170215187e+01,1.677425039190422140e+01,1.546158292436258685e+00,-1.499999999999999822e+01
1.180000000000000909e-01,1.094752017226426943e+01,1.692505940472613446e+01,1.516968782133015781e+00,-1.499999999999999822e+01
1.190000000000000918e-01,1.096452060769139614e+01,1.707579995538398876e+01,1.488143232203420485e+00,-1.499999999999999822e+01
1.200000000000000927e-01,1.098167174901623966e+01,1.722647102806445574e+01,1.459679458334403046e+00,-1.499999999999999822e+01
1.210000000000000936e-01,1.099897352623886349e+01,1.737707157313210615e+01,1.431575220543473081e+00,-1.499999999999999822e+01
1.220000000000000945e-01,1.101642586829238724e+01,1.752760050617504106e+01,1.403828162607835717e+00,-1.499999999999999822e+01
1.230000000000000954e-01,1.103402870300771887e+01,1.767805670701187282e+01,1.376435947804355298e+00,-1.499999999999999822e+01
1.240000000000000963e-01,1.105178195707728328e+01,1.782843901869365055e+01,1.349396113508663841e+00,-1.499999999999999822e+01
1.250000000000000833e-01,1.106968555601774895e+01,1.797874624648466835e+01,1.322706129905027117e+00,-1.499999999999999822e+01
1.260000000000000842e-01,1.108773942113511168e+01,1.812896816732780536e+01,1.296363411846716662e+00,-1.499999999999999822e+01
1.270000000000000850e-01,1.110594346049825631e+01,1.827909452382848698e+01,1.270365397813826958e+00,-1.499999999999999822e+01
1.280000000000000859e-01,1.112429757789339924e+01,1.842912401026702796e+01,1.244709487828153494e+00,-1.499999999999999822e+01
1.290000000000000868e-01,1.114280167578034941e+01,1.857905527937052881e+01,1.219392899173949552e+00,-1.499999999999999822e+01
1.300000000000000877e-01,1.116145565525039807e+01,1.872888694118492481e+01,1.194412725522131513e+00,-1.499999999999999822e+01
1.310000000000000886e-01,1.118025941598307504e+01,1.887861756194837071e+01,1.169766129819078015e+00,-1.499999999999999822e+01
1.320000000000000895e-01,1.119921285620176299e+01,1.902824566293972097e+01,1.145450236597648663e+00,-1.499999999999999822e+01
1.330000000000000904e-01,1.121831587262815155e+01,1.917776971929370688e+01,1.121461992752961212e+00,-1.499999999999999822e+01
1.340000000000000913e-01,1.123756836043549789e+01,1.932718815880360808e+01,1.097798470189706110e+00,-1.499999999999999822e+01
1.350000000000000921e-01,1.125697021320067215e+01,1.947649936070578391e+01,1.074456555584342166e+00,-1.499999999999999822e+01
1.360000000000000930e-01,1.127652132285498432e+01,1.962570165442613757e+01,1.051432918167127362e+00,-1.499999999999999822e+01
1.370000000000000939e-01,1.129622157963373930e+01,1.977479331832152809e+01,1.028724428087174347e+00,-1.499999999999999822e+01
1.380000000000000948e-01,1.131607087202453776e+01,1.992377257841567229e+01,1.006327978703475567e+00,-1.499999999999999822e+01
1.390000000000000957e-01,1.133606908671428570e+01,2.007263760706425870e+01,9.842401126758906216e-01,-1.499999999999999822e+01
1.400000000000000966e-01,1.135621610853486096e+01,2.022138652163767603e+01,9.624572852239499099e-01,-1.499999999999999822e+01
1.410000000000000975e-01,1.137651182040745113e+01,2.037001738315343502e+01,9.409762674574136954e-01,-1.499999999999999822e+01
1.420000000000000984e-01,1.139695610328551645e+01,2.051852819492140156e+01,9.197936532346184801e-01,-1.499999999999999822e+01
1.430000000000000993e-01,1.141754883609640459e+01,2.066691690115980862e+01,8.989057897195021907e-01,-1.499999999999999822e+01
1.440000000000001001e-01,1.143828989568153887e+01,2.081518138557113673e+01,8.783090576433965069e-01,-1.499999999999999822e+01
1.450000000000001010e-01,1.145917915673518905e+01,2.096331946990494544e+01,8.579998561219570608e-01,-1.499999999999999822e+01
1.460000000000001019e-01,1.148021649174179082e+01,2.111132891249679844e+01,8.379745555537844171e-01,-1.499999999999999822e+01
1.470000000000001028e-01,1.150140177091179972e+01,2.125920740679979204e+01,8.182293945766648813e-01,-1.499999999999999822e+01
1.480000000000001037e-01,1.152273486211606190e+01,2.140695257990260814e+01,7.987604670697141529e-01,-1.499999999999999822e+01
1.490000000000001046e-01,1.154421563081870161e+01,2.155456199100810721e+01,7.795640667863489304e-01,-1.499999999999999822e+01
1.500000000000001055e-01,1.156584394000845784e+01,2.170203312988564903e+01,7.606696776654678915e-01,-1.499999999999999822e+01
1.510000000000001064e-01,1.158761964642653197e+01,2.184935229455473049e+01,7.421039019473570919e-01,-1.499999999999999822e+01
1.520000000000001072e-01,1.160954258926927984e+01,2.199650547186863392e+01,7.238587404733216601e-01,-1.499999999999999822e+01
1.530000000000001081e-01,1.163161260101778538e+01,2.214348958921772592e+01,7.059260326096971072e-01,-1.499999999999999822e+01
1.540000000000001090e-01,1.165382951105201315e+01,2.229030151693351058e+01,6.882978623092588233e-01,-1.499999999999999822e+01
1.550000000000001099e-01,1.167619314559362564e+01,2.243693806802644630e+01,6.709667707739014331e-01,-1.499999999999999822e+01
1.560000000000001108e-01,1.169870332764852350e+01,2.258339599793070107e+01,6.446709386664165597e-01,-1.499999999999999822e+01
1.570000000000001117e-01,1.172135987694914583e+01,2.272967200423824607e+01,5.629537489230698188e-01,-1.499999999999999822e+01
